# #Node_id x y
0 0.18887686585995425 0.18887686585995425
1 1.4992101227633869 1.4992101227633869
2 0.82633628813729987 0.82633628813729987
3 0.3777537317199085 0.3777537317199085
4 0.12985284527871854 0.12985284527871854
5 0.43677775230114418 0.43677775230114418
6 1.3929668857171627 1.3929668857171627
7 0.31872971113867282 0.31872971113867282
8 0.21248647409244853 0.21248647409244853
9 0.5076065769986271 0.5076065769986271
10 0.74370265932356983 0.74370265932356983
11 1.3929668857171627 1.3929668857171627
12 0.059024020581235702 0.059024020581235702
13 1.2158948239734555 1.2158948239734555
14 1.841549442134554 1.841549442134554
15 0.56663059757986278 0.56663059757986278
16 0.46038736053363849 0.46038736053363849
17 0.57843540169610985 0.57843540169610985
18 0.41316814406864993 0.41316814406864993
19 0.54302098934736853 0.54302098934736853
20 0.25970569055743709 0.25970569055743709
21 1.2276996280897026 1.2276996280897026
22 0.1180480411624714 0.1180480411624714
23 1.1450659992759726 1.1450659992759726
24 0.070828824697482848 0.070828824697482848
25 0.95618913341601841 0.95618913341601841
26 1.0506275663459956 1.0506275663459956
27 0.81453148402105269 0.81453148402105269
28 0.3541441234874142 0.3541441234874142
29 0.33053451525491995 0.33053451525491995
30 1.0742371745784898 1.0742371745784898
31 0.1770720617437071 0.1770720617437071
32 0.53121618523112135 0.53121618523112135
33 1.0034083498810069 1.0034083498810069
34 0.27151049467368427 0.27151049467368427
35 0.82633628813729987 0.82633628813729987
36 0.41316814406864993 0.41316814406864993
37 1.6408677721583527 1.6408677721583527
38 0.1180480411624714 0.1180480411624714
39 1.6172581639258583 1.6172581639258583
40 0.25970569055743709 0.25970569055743709
41 0.88536030871853555 0.88536030871853555
42 0.15346245351121282 0.15346245351121282
43 0.082633628813729987 0.082633628813729987
44 0.31872971113867282 0.31872971113867282
45 0.1416576493949657 0.1416576493949657
46 0.059024020581235702 0.059024020581235702
47 0.29512010290617852 0.29512010290617852
48 0.10624323704622426 0.10624323704622426
49 1.7943302256695655 1.7943302256695655
50 0.2006816699762014 0.2006816699762014
51 0.23609608232494281 0.23609608232494281
52 0.81453148402105269 0.81453148402105269
53 0.41316814406864993 0.41316814406864993
54 0.89716511283478273 0.89716511283478273
55 0.12985284527871854 0.12985284527871854
56 1.2513092363221969 1.2513092363221969
57 0.40136333995240281 0.40136333995240281
58 0.3777537317199085 0.3777537317199085
59 0.12985284527871854 0.12985284527871854
60 0.62565461816109846 0.62565461816109846
61 0.83814109225354705 0.83814109225354705
62 0.1180480411624714 0.1180480411624714
63 1.4401861021821512 1.4401861021821512
64 0.38955853583615563 0.38955853583615563
65 1.0978467828109841 1.0978467828109841
66 0.76731226755606419 0.76731226755606419
67 0.31872971113867282 0.31872971113867282
68 0.070828824697482848 0.070828824697482848
69 0.070828824697482848 0.070828824697482848
70 0.96799393753226559 0.96799393753226559
71 0.29512010290617852 0.29512010290617852
72 0.082633628813729987 0.082633628813729987
73 0.047219216464988563 0.047219216464988563
74 0.22429127820869568 0.22429127820869568
75 0.5076065769986271 0.5076065769986271
76 0.81453148402105269 0.81453148402105269
77 0.66106903050983989 0.66106903050983989
78 0.1770720617437071 0.1770720617437071
79 0.54302098934736853 0.54302098934736853
80 0.023609608232494281 0.023609608232494281
81 0.1416576493949657 0.1416576493949657
82 1.4047716898334097 1.4047716898334097
83 0.1416576493949657 0.1416576493949657
84 0.22429127820869568 0.22429127820869568
85 0.023609608232494281 0.023609608232494281
86 0.070828824697482848 0.070828824697482848
87 0.10624323704622426 0.10624323704622426
88 0.082633628813729987 0.082633628813729987
89 0.011804804116247141 0.011804804116247141
90 0.047219216464988563 0.047219216464988563
91 0.047219216464988563 0.047219216464988563
92 0.070828824697482848 0.070828824697482848
93 0.094438432929977126 0.094438432929977126
94 0.27151049467368427 0.27151049467368427
95 0.81453148402105269 0.81453148402105269
96 0.21248647409244853 0.21248647409244853
97 0.23609608232494281 0.23609608232494281
98 0.1180480411624714 0.1180480411624714
99 0.059024020581235702 0.059024020581235702
100 0.72009305109107558 0.72009305109107558
101 0.011804804116247141 0.011804804116247141
102 0.023609608232494281 0.023609608232494281
103 0.011804804116247141 0.011804804116247141
104 0.094438432929977126 0.094438432929977126
105 0.22429127820869568 0.22429127820869568
106 1.2985284527871854 1.2985284527871854
107 0.070828824697482848 0.070828824697482848
108 0.023609608232494281 0.023609608232494281
109 0.035414412348741424 0.035414412348741424
110 0.29512010290617852 0.29512010290617852
111 0.011804804116247141 0.011804804116247141
112 0.011804804116247141 0.011804804116247141
113 0.059024020581235702 0.059024020581235702
114 0.047219216464988563 0.047219216464988563
115 0.3541441234874142 0.3541441234874142
116 0.082633628813729987 0.082633628813729987
117 0.023609608232494281 0.023609608232494281
118 0.011804804116247141 0.011804804116247141
119 0.77911707167231126 0.77911707167231126
120 0.023609608232494281 0.023609608232494281
121 0.082633628813729987 0.082633628813729987
122 0.011804804116247141 0.011804804116247141
123 0.023609608232494281 0.023609608232494281
124 0.047219216464988563 0.047219216464988563
125 0.011804804116247141 0.011804804116247141
126 0.070828824697482848 0.070828824697482848
127 0.035414412348741424 0.035414412348741424
128 0.035414412348741424 0.035414412348741424
129 0.1180480411624714 0.1180480411624714
130 0.035414412348741424 0.035414412348741424
131 0.49580177288237992 0.49580177288237992
132 0.047219216464988563 0.047219216464988563
133 0.1180480411624714 0.1180480411624714
134 0.023609608232494281 0.023609608232494281
135 0.023609608232494281 0.023609608232494281
136 0.1180480411624714 0.1180480411624714
137 0.46038736053363849 0.46038736053363849
138 0.035414412348741424 0.035414412348741424
139 0.059024020581235702 0.059024020581235702
140 0.023609608232494281 0.023609608232494281
141 0.011804804116247141 0.011804804116247141
142 0.070828824697482848 0.070828824697482848
143 0.059024020581235702 0.059024020581235702
144 0.059024020581235702 0.059024020581235702
145 0.15346245351121282 0.15346245351121282
146 0.059024020581235702 0.059024020581235702
147 0.023609608232494281 0.023609608232494281
148 0.023609608232494281 0.023609608232494281
149 0.059024020581235702 0.059024020581235702
150 0.059024020581235702 0.059024020581235702
151 0.011804804116247141 0.011804804116247141
152 0.011804804116247141 0.011804804116247141
153 0.1180480411624714 0.1180480411624714
154 0.2006816699762014 0.2006816699762014
155 0.10624323704622426 0.10624323704622426
156 1.3575524733684212 1.3575524733684212
157 0.047219216464988563 0.047219216464988563
158 0.035414412348741424 0.035414412348741424
159 0.40136333995240281 0.40136333995240281
160 0.011804804116247141 0.011804804116247141
161 0.082633628813729987 0.082633628813729987
162 0.023609608232494281 0.023609608232494281
163 0.49580177288237992 0.49580177288237992
164 0.023609608232494281 0.023609608232494281
165 0.1416576493949657 0.1416576493949657
166 0.023609608232494281 0.023609608232494281
167 0.059024020581235702 0.059024020581235702
168 0.011804804116247141 0.011804804116247141
169 0.72009305109107558 0.72009305109107558
170 0.047219216464988563 0.047219216464988563
171 0.28331529878993139 0.28331529878993139
172 0.035414412348741424 0.035414412348741424
173 0.023609608232494281 0.023609608232494281
174 0.30692490702242564 0.30692490702242564
175 0.047219216464988563 0.047219216464988563
176 0.047219216464988563 0.047219216464988563
177 0.059024020581235702 0.059024020581235702
178 0.011804804116247141 0.011804804116247141
179 0.094438432929977126 0.094438432929977126
180 0.011804804116247141 0.011804804116247141
181 0.15346245351121282 0.15346245351121282
182 0.023609608232494281 0.023609608232494281
183 0.23609608232494281 0.23609608232494281
184 0.047219216464988563 0.047219216464988563
185 0.023609608232494281 0.023609608232494281
186 0.64926422639359271 0.64926422639359271
187 0.10624323704622426 0.10624323704622426
188 0.24790088644118996 0.24790088644118996
189 0.2006816699762014 0.2006816699762014
190 0.1770720617437071 0.1770720617437071
191 0.082633628813729987 0.082633628813729987
192 0.73189785520732276 0.73189785520732276
193 0.1416576493949657 0.1416576493949657
194 0.24790088644118996 0.24790088644118996
195 0.16526725762745997 0.16526725762745997
196 0.51941138111487417 0.51941138111487417
197 0.38955853583615563 0.38955853583615563
198 0.5548257934636156 0.5548257934636156
199 0.011804804116247141 0.011804804116247141
200 0.31872971113867282 0.31872971113867282
201 0.023609608232494281 0.023609608232494281
202 0.83814109225354705 0.83814109225354705
203 0.2006816699762014 0.2006816699762014
204 0.082633628813729987 0.082633628813729987
205 0.047219216464988563 0.047219216464988563
206 0.12985284527871854 0.12985284527871854
207 0.2006816699762014 0.2006816699762014
208 0.25970569055743709 0.25970569055743709
209 0.070828824697482848 0.070828824697482848
210 0.059024020581235702 0.059024020581235702
211 0.22429127820869568 0.22429127820869568
212 0.38955853583615563 0.38955853583615563
213 0.38955853583615563 0.38955853583615563
214 0.059024020581235702 0.059024020581235702
215 0.047219216464988563 0.047219216464988563
216 0.082633628813729987 0.082633628813729987
217 0.047219216464988563 0.047219216464988563
218 0.035414412348741424 0.035414412348741424
219 0.011804804116247141 0.011804804116247141
220 0.25970569055743709 0.25970569055743709
221 0.070828824697482848 0.070828824697482848
222 0.023609608232494281 0.023609608232494281
223 0.070828824697482848 0.070828824697482848
224 0.33053451525491995 0.33053451525491995
225 0.12985284527871854 0.12985284527871854
226 0.047219216464988563 0.047219216464988563
227 0.023609608232494281 0.023609608232494281
228 0.25970569055743709 0.25970569055743709
229 0.047219216464988563 0.047219216464988563
230 0.023609608232494281 0.023609608232494281
231 0.011804804116247141 0.011804804116247141
232 0.035414412348741424 0.035414412348741424
233 0.011804804116247141 0.011804804116247141
234 0.1180480411624714 0.1180480411624714
235 0.18887686585995425 0.18887686585995425
236 1.4637957104146455 1.4637957104146455
237 0.011804804116247141 0.011804804116247141
238 0.070828824697482848 0.070828824697482848
239 0.18887686585995425 0.18887686585995425
240 0.47219216464988562 0.47219216464988562
241 0.047219216464988563 0.047219216464988563
242 0.023609608232494281 0.023609608232494281
243 0.011804804116247141 0.011804804116247141
244 0.011804804116247141 0.011804804116247141
245 0.30692490702242564 0.30692490702242564
246 0.12985284527871854 0.12985284527871854
247 0.023609608232494281 0.023609608232494281
248 0.047219216464988563 0.047219216464988563
249 0.21248647409244853 0.21248647409244853
250 0.011804804116247141 0.011804804116247141
251 0.1770720617437071 0.1770720617437071
252 0.1180480411624714 0.1180480411624714
253 0.035414412348741424 0.035414412348741424
254 0.10624323704622426 0.10624323704622426
255 0.070828824697482848 0.070828824697482848
256 0.035414412348741424 0.035414412348741424
257 0.047219216464988563 0.047219216464988563
258 0.023609608232494281 0.023609608232494281
259 0.094438432929977126 0.094438432929977126
260 0.18887686585995425 0.18887686585995425
261 0.035414412348741424 0.035414412348741424
262 0.24790088644118996 0.24790088644118996
263 0.011804804116247141 0.011804804116247141
264 0.070828824697482848 0.070828824697482848
265 0.023609608232494281 0.023609608232494281
266 0.10624323704622426 0.10624323704622426
267 0.18887686585995425 0.18887686585995425
268 0.18887686585995425 0.18887686585995425
269 0.082633628813729987 0.082633628813729987
270 0.1180480411624714 0.1180480411624714
271 0.059024020581235702 0.059024020581235702
272 0.023609608232494281 0.023609608232494281
273 0.22429127820869568 0.22429127820869568
274 0.023609608232494281 0.023609608232494281
275 0.047219216464988563 0.047219216464988563
276 0.035414412348741424 0.035414412348741424
277 0.16526725762745997 0.16526725762745997
278 0.1180480411624714 0.1180480411624714
279 0.011804804116247141 0.011804804116247141
280 0.094438432929977126 0.094438432929977126
281 0.047219216464988563 0.047219216464988563
282 0.011804804116247141 0.011804804116247141
283 0.047219216464988563 0.047219216464988563
284 0.10624323704622426 0.10624323704622426
285 0.035414412348741424 0.035414412348741424
286 0.43677775230114418 0.43677775230114418
287 0.12985284527871854 0.12985284527871854
288 0.059024020581235702 0.059024020581235702
289 0.2006816699762014 0.2006816699762014
290 0.082633628813729987 0.082633628813729987
291 0.094438432929977126 0.094438432929977126
292 0.059024020581235702 0.059024020581235702
293 0.22429127820869568 0.22429127820869568
294 0.035414412348741424 0.035414412348741424
295 0.1416576493949657 0.1416576493949657
296 0.011804804116247141 0.011804804116247141
297 0.011804804116247141 0.011804804116247141
298 0.1770720617437071 0.1770720617437071
299 0.070828824697482848 0.070828824697482848
300 0.070828824697482848 0.070828824697482848
301 0.023609608232494281 0.023609608232494281
302 0.011804804116247141 0.011804804116247141
303 0.023609608232494281 0.023609608232494281
304 0.023609608232494281 0.023609608232494281
305 0.047219216464988563 0.047219216464988563
306 0.011804804116247141 0.011804804116247141
307 0.070828824697482848 0.070828824697482848
308 0.047219216464988563 0.047219216464988563
309 0.011804804116247141 0.011804804116247141
310 0.011804804116247141 0.011804804116247141
311 0.059024020581235702 0.059024020581235702
312 0.070828824697482848 0.070828824697482848
313 0.035414412348741424 0.035414412348741424
314 0.023609608232494281 0.023609608232494281
315 0.035414412348741424 0.035414412348741424
316 0.011804804116247141 0.011804804116247141
317 0.011804804116247141 0.011804804116247141
318 0.035414412348741424 0.035414412348741424
319 0.011804804116247141 0.011804804116247141
320 0.011804804116247141 0.011804804116247141
321 0.15346245351121282 0.15346245351121282
322 0.16526725762745997 0.16526725762745997
323 0.070828824697482848 0.070828824697482848
324 0.047219216464988563 0.047219216464988563
325 0.082633628813729987 0.082633628813729987
326 0.047219216464988563 0.047219216464988563
327 0.035414412348741424 0.035414412348741424
328 0.28331529878993139 0.28331529878993139
329 0.070828824697482848 0.070828824697482848
330 0.10624323704622426 0.10624323704622426
331 0.011804804116247141 0.011804804116247141
332 0.070828824697482848 0.070828824697482848
333 0.070828824697482848 0.070828824697482848
334 0.023609608232494281 0.023609608232494281
335 0.094438432929977126 0.094438432929977126
336 0.1416576493949657 0.1416576493949657
337 0.24790088644118996 0.24790088644118996
338 0.011804804116247141 0.011804804116247141
339 0.047219216464988563 0.047219216464988563
340 0.070828824697482848 0.070828824697482848
341 0.011804804116247141 0.011804804116247141
342 0.011804804116247141 0.011804804116247141
343 0.023609608232494281 0.023609608232494281
344 0.023609608232494281 0.023609608232494281
345 0.082633628813729987 0.082633628813729987
346 0.023609608232494281 0.023609608232494281
347 0.011804804116247141 0.011804804116247141
348 0.023609608232494281 0.023609608232494281
349 0.047219216464988563 0.047219216464988563
350 0.023609608232494281 0.023609608232494281
351 0.011804804116247141 0.011804804116247141
352 0.059024020581235702 0.059024020581235702
353 0.011804804116247141 0.011804804116247141
354 0.023609608232494281 0.023609608232494281
355 0.035414412348741424 0.035414412348741424
356 0.011804804116247141 0.011804804116247141
357 0.070828824697482848 0.070828824697482848
358 0.011804804116247141 0.011804804116247141
359 0.070828824697482848 0.070828824697482848
360 0.12985284527871854 0.12985284527871854
361 0.12985284527871854 0.12985284527871854
362 0.047219216464988563 0.047219216464988563
363 0.059024020581235702 0.059024020581235702
364 0.047219216464988563 0.047219216464988563
365 0.023609608232494281 0.023609608232494281
366 0.023609608232494281 0.023609608232494281
367 0.011804804116247141 0.011804804116247141
368 0.023609608232494281 0.023609608232494281
369 0.011804804116247141 0.011804804116247141
370 0.035414412348741424 0.035414412348741424
371 0.035414412348741424 0.035414412348741424
372 0.011804804116247141 0.011804804116247141
373 0.011804804116247141 0.011804804116247141
374 0.035414412348741424 0.035414412348741424
375 0.023609608232494281 0.023609608232494281
376 0.047219216464988563 0.047219216464988563
377 0.035414412348741424 0.035414412348741424
378 0.011804804116247141 0.011804804116247141
379 0.011804804116247141 0.011804804116247141
380 0.011804804116247141 0.011804804116247141
381 0.023609608232494281 0.023609608232494281
382 0.011804804116247141 0.011804804116247141
383 0.023609608232494281 0.023609608232494281
384 0.023609608232494281 0.023609608232494281
385 0.011804804116247141 0.011804804116247141
386 0.023609608232494281 0.023609608232494281
387 0.023609608232494281 0.023609608232494281
388 0.011804804116247141 0.011804804116247141
389 0.011804804116247141 0.011804804116247141
390 0.035414412348741424 0.035414412348741424
391 0.023609608232494281 0.023609608232494281
392 0.023609608232494281 0.023609608232494281
393 0.011804804116247141 0.011804804116247141
394 0.023609608232494281 0.023609608232494281
395 0.011804804116247141 0.011804804116247141
396 0.023609608232494281 0.023609608232494281
397 0.011804804116247141 0.011804804116247141
398 0.023609608232494281 0.023609608232494281
399 0.011804804116247141 0.011804804116247141
400 0.035414412348741424 0.035414412348741424
401 0.047219216464988563 0.047219216464988563
402 0.011804804116247141 0.011804804116247141
403 0.035414412348741424 0.035414412348741424
404 0.023609608232494281 0.023609608232494281
405 0.011804804116247141 0.011804804116247141
406 0.011804804116247141 0.011804804116247141
407 0.047219216464988563 0.047219216464988563
408 0.011804804116247141 0.011804804116247141
409 0.011804804116247141 0.011804804116247141
410 0.023609608232494281 0.023609608232494281
411 0.011804804116247141 0.011804804116247141
412 0.011804804116247141 0.011804804116247141
413 0.023609608232494281 0.023609608232494281
414 0.011804804116247141 0.011804804116247141
415 0.011804804116247141 0.011804804116247141
416 0.011804804116247141 0.011804804116247141
