# #Node_id x y
0 0.031861206354862281 0.030346419340322062
1 0.25031607478875656 0.23841515103193445
2 0.13868021832331007 0.13208687758168752
3 0.063626085607581651 0.060601054382080466
4 0.021914850616987891 0.020872943908494646
5 0.073532693495221568 0.070036667301465017
6 0.23275549152022246 0.22168957985287008
7 0.053709991187969486 0.051156423846825283
8 0.035837120746990858 0.034133299142218132
9 0.085408085677858181 0.081347480207980771
10 0.12489485458328226 0.11895691335363057
11 0.23275549152022246 0.22168957985287008
12 0.0099668671605983583 0.0094930036518949268
13 0.2034368709685706 0.19376484028200536
14 0.30677197448172744 0.29218651099683524
15 0.095293820007293639 0.090763220254108157
16 0.077492641288608 0.073808385660240339
17 0.09726984556081919 0.092645295659861293
18 0.069571157431060016 0.066263479292249239
19 0.091340652143865164 0.086998001579225603
20 0.043784403945216821 0.041702742301981843
21 0.2053935317197037 0.19562848323911913
22 0.019924456309942051 0.018977179852856796
23 0.1916900814916101 0.18257646249522042
24 0.011959129539803159 0.011390551030934004
25 0.16030729908090113 0.15268573688418391
26 0.17600948442313374 0.16764138792861921
27 0.13671196700945815 0.13021220849724008
28 0.059660794801592865 0.056824301775125929
29 0.0556939473314223 0.053046073257340398
30 0.17993162204150842 0.17137709309643545
31 0.029872701929034129 0.028452445511095936
32 0.089363513154622209 0.085114850729532454
33 0.16816113991729803 0.16016617977321279
34 0.045770288960735594 0.043594192662914866
35 0.13868021832331007 0.13208687758168752
36 0.069571157431060016 0.066263479292249239
37 0.2736986850491871 0.26068603368637178
38 0.019924456309942051 0.018977179852856796
39 0.2698042339623995 0.25697611714221269
40 0.043784403945216821 0.041702742301981843
41 0.14851604446316752 0.14145509672888246
42 0.025894517711513743 0.024663370804846763
43 0.013951020336196385 0.013287738518296011
44 0.053709991187969486 0.051156423846825283
45 0.023904880993445732 0.022768361440276719
46 0.0099668671605983583 0.0094930036518949268
47 0.049740880647994479 0.047376033348971669
48 0.017933684384057125 0.0170810561999441
49 0.29899464340970638 0.28477940186146844
50 0.033849357100058819 0.032240038309544305
51 0.039811504923501717 0.037918736980799783
52 0.13671196700945815 0.13021220849724008
53 0.069571157431060016 0.066263479292249239
54 0.15048213616527145 0.14332769541795543
55 0.021914850616987891 0.020872943908494646
56 0.20930596659238915 0.19935489233503956
57 0.067589860255720335 0.064376389544209434
58 0.063626085607581651 0.060601054382080466
59 0.021914850616987891 0.020872943908494646
60 0.10517019283136692 0.10017000649042063
61 0.14064809973928327 0.13396120285592955
62 0.019924456309942051 0.018977179852856796
63 0.24056284513816345 0.22912566247570126
64 0.065608178795055483 0.062488911149316595
65 0.18385242830008325 0.17511141843537609
66 0.1288353517569103 0.12271006597894368
67 0.053709991187969486 0.051156423846825283
68 0.011959129539803159 0.011390551030934004
69 0.011959129539803159 0.011390551030934004
70 0.16227127613303205 0.15455634293541082
71 0.049740880647994479 0.047376033348971669
72 0.013951020336196385 0.013287738518296011
73 0.0079742279890541723 0.0075951106541364277
74 0.037824515196761443 0.03602619420936215
75 0.085408085677858181 0.081347480207980771
76 0.13671196700945815 0.13021220849724008
77 0.11109146818726956 0.1058097966379753
78 0.029872701929034129 0.028452445511095936
79 0.091340652143865164 0.086998001579225603
80 0.0039878541258309141 0.0037982582096293682
81 0.023904880993445732 0.022768361440276719
82 0.23470772452253574 0.22354901770457575
83 0.023904880993445732 0.022768361440276719
84 0.037824515196761443 0.03602619420936215
85 0.0039878541258309141 0.0037982582096293682
86 0.011959129539803159 0.011390551030934004
87 0.017933684384057125 0.0170810561999441
88 0.013951020336196385 0.013287738518296011
89 0.0019941106190833335 0.0018993023595719194
90 0.0079742279890541723 0.0075951106541364277
91 0.0079742279890541723 0.0075951106541364277
92 0.011959129539803159 0.011390551030934004
93 0.015942539098362907 0.015184575583770898
94 0.045770288960735594 0.043594192662914866
95 0.13671196700945815 0.13021220849724008
96 0.035837120746990858 0.034133299142218132
97 0.039811504923501717 0.037918736980799783
98 0.019924456309942051 0.018977179852856796
99 0.0099668671605983583 0.0094930036518949268
100 0.12095289986456498 0.11520235390369826
101 0.0019941106190833335 0.0018993023595719194
102 0.0039878541258309141 0.0037982582096293682
103 0.0019941106190833335 0.0018993023595719194
104 0.015942539098362907 0.015184575583770898
105 0.037824515196761443 0.03602619420936215
106 0.21712723141403234 0.20680427631815873
107 0.011959129539803159 0.011390551030934004
108 0.0039878541258309141 0.0037982582096293682
109 0.0059812346434960917 0.0056968593491616426
110 0.049740880647994479 0.047376033348971669
111 0.0019941106190833335 0.0018993023595719194
112 0.0019941106190833335 0.0018993023595719194
113 0.0099668671605983583 0.0094930036518949268
114 0.0079742279890541723 0.0075951106541364277
115 0.059660794801592865 0.056824301775125929
116 0.013951020336196385 0.013287738518296011
117 0.0039878541258309141 0.0037982582096293682
118 0.0019941106190833335 0.0018993023595719194
119 0.13080505314331731 0.12458612658357837
120 0.0039878541258309141 0.0037982582096293682
121 0.013951020336196385 0.013287738518296011
122 0.0019941106190833335 0.0018993023595719194
123 0.0039878541258309141 0.0037982582096293682
124 0.0079742279890541723 0.0075951106541364277
125 0.0019941106190833335 0.0018993023595719194
126 0.011959129539803159 0.011390551030934004
127 0.0059812346434960917 0.0056968593491616426
128 0.0059812346434960917 0.0056968593491616426
129 0.019924456309942051 0.018977179852856796
130 0.0059812346434960917 0.0056968593491616426
131 0.083429806889377844 0.07946324231520524
132 0.0079742279890541723 0.0075951106541364277
133 0.019924456309942051 0.018977179852856796
134 0.0039878541258309141 0.0037982582096293682
135 0.0039878541258309141 0.0037982582096293682
136 0.019924456309942051 0.018977179852856796
137 0.077492641288608 0.073808385660240339
138 0.0059812346434960917 0.0056968593491616426
139 0.0099668671605983583 0.0094930036518949268
140 0.0039878541258309141 0.0037982582096293682
141 0.0019941106190833335 0.0018993023595719194
142 0.011959129539803159 0.011390551030934004
143 0.0099668671605983583 0.0094930036518949268
144 0.0099668671605983583 0.0094930036518949268
145 0.025894517711513743 0.024663370804846763
146 0.0099668671605983583 0.0094930036518949268
147 0.0039878541258309141 0.0037982582096293682
148 0.0039878541258309141 0.0037982582096293682
149 0.0099668671605983583 0.0094930036518949268
150 0.0099668671605983583 0.0094930036518949268
151 0.0019941106190833335 0.0018993023595719194
152 0.0019941106190833335 0.0018993023595719194
153 0.019924456309942051 0.018977179852856796
154 0.033849357100058819 0.032240038309544305
155 0.017933684384057125 0.0170810561999441
156 0.22689703996530336 0.21610963394661153
157 0.0079742279890541723 0.0075951106541364277
158 0.0059812346434960917 0.0056968593491616426
159 0.067589860255720335 0.064376389544209434
160 0.0019941106190833335 0.0018993023595719194
161 0.013951020336196385 0.013287738518296011
162 0.0039878541258309141 0.0037982582096293682
163 0.083429806889377844 0.07946324231520524
164 0.0039878541258309141 0.0037982582096293682
165 0.023904880993445732 0.022768361440276719
166 0.0039878541258309141 0.0037982582096293682
167 0.0099668671605983583 0.0094930036518949268
168 0.0019941106190833335 0.0018993023595719194
169 0.12095289986456498 0.11520235390369826
170 0.0079742279890541723 0.0075951106541364277
171 0.047755784250457012 0.045485297429133875
172 0.0059812346434960917 0.0056968593491616426
173 0.0039878541258309141 0.0037982582096293682
174 0.05172563627130472 0.049266439824114883
175 0.0079742279890541723 0.0075951106541364277
176 0.0079742279890541723 0.0075951106541364277
177 0.0099668671605983583 0.0094930036518949268
178 0.0019941106190833335 0.0018993023595719194
179 0.015942539098362907 0.015184575583770898
180 0.0019941106190833335 0.0018993023595719194
181 0.025894517711513743 0.024663370804846763
182 0.0039878541258309141 0.0037982582096293682
183 0.039811504923501717 0.037918736980799783
184 0.0079742279890541723 0.0075951106541364277
185 0.0039878541258309141 0.0037982582096293682
186 0.10911807969414167 0.10393021995555773
187 0.017933684384057125 0.0170810561999441
188 0.041798162058577115 0.039810922501270551
189 0.033849357100058819 0.032240038309544305
190 0.029872701929034129 0.028452445511095936
191 0.013951020336196385 0.013287738518296011
192 0.12292408077480826 0.1170798108306183
193 0.023904880993445732 0.022768361440276719
194 0.041798162058577115 0.039810922501270551
195 0.027883802543523573 0.026558099077649777
196 0.08738598450655416 0.083231340233745565
197 0.065608178795055483 0.062488911149316595
198 0.09331743187098579 0.088880788466686345
199 0.0019941106190833335 0.0018993023595719194
200 0.053709991187969486 0.051156423846825283
201 0.0039878541258309141 0.0037982582096293682
202 0.14064809973928327 0.13396120285592955
203 0.033849357100058819 0.032240038309544305
204 0.013951020336196385 0.013287738518296011
205 0.0079742279890541723 0.0075951106541364277
206 0.021914850616987891 0.020872943908494646
207 0.033849357100058819 0.032240038309544305
208 0.043784403945216821 0.041702742301981843
209 0.011959129539803159 0.011390551030934004
210 0.0099668671605983583 0.0094930036518949268
211 0.037824515196761443 0.03602619420936215
212 0.065608178795055483 0.062488911149316595
213 0.065608178795055483 0.062488911149316595
214 0.0099668671605983583 0.0094930036518949268
215 0.0079742279890541723 0.0075951106541364277
216 0.013951020336196385 0.013287738518296011
217 0.0079742279890541723 0.0075951106541364277
218 0.0059812346434960917 0.0056968593491616426
219 0.0019941106190833335 0.0018993023595719194
220 0.043784403945216821 0.041702742301981843
221 0.011959129539803159 0.011390551030934004
222 0.0039878541258309141 0.0037982582096293682
223 0.011959129539803159 0.011390551030934004
224 0.0556939473314223 0.053046073257340398
225 0.021914850616987891 0.020872943908494646
226 0.0079742279890541723 0.0075951106541364277
227 0.0039878541258309141 0.0037982582096293682
228 0.043784403945216821 0.041702742301981843
229 0.0079742279890541723 0.0075951106541364277
230 0.0039878541258309141 0.0037982582096293682
231 0.0019941106190833335 0.0018993023595719194
232 0.0059812346434960917 0.0056968593491616426
233 0.0019941106190833335 0.0018993023595719194
234 0.019924456309942051 0.018977179852856796
235 0.031861206354862281 0.030346419340322062
236 0.24446490401629845 0.23284212614908478
237 0.0019941106190833335 0.0018993023595719194
238 0.011959129539803159 0.011390551030934004
239 0.031861206354862281 0.030346419340322062
240 0.079472092320345633 0.075693690037548944
241 0.0079742279890541723 0.0075951106541364277
242 0.0039878541258309141 0.0037982582096293682
243 0.0019941106190833335 0.0018993023595719194
244 0.0019941106190833335 0.0018993023595719194
245 0.05172563627130472 0.049266439824114883
246 0.021914850616987891 0.020872943908494646
247 0.0039878541258309141 0.0037982582096293682
248 0.0079742279890541723 0.0075951106541364277
249 0.035837120746990858 0.034133299142218132
250 0.0019941106190833335 0.0018993023595719194
251 0.029872701929034129 0.028452445511095936
252 0.019924456309942051 0.018977179852856796
253 0.0059812346434960917 0.0056968593491616426
254 0.017933684384057125 0.0170810561999441
255 0.011959129539803159 0.011390551030934004
256 0.0059812346434960917 0.0056968593491616426
257 0.0079742279890541723 0.0075951106541364277
258 0.0039878541258309141 0.0037982582096293682
259 0.015942539098362907 0.015184575583770898
260 0.031861206354862281 0.030346419340322062
261 0.0059812346434960917 0.0056968593491616426
262 0.041798162058577115 0.039810922501270551
263 0.0019941106190833335 0.0018993023595719194
264 0.011959129539803159 0.011390551030934004
265 0.0039878541258309141 0.0037982582096293682
266 0.017933684384057125 0.0170810561999441
267 0.031861206354862281 0.030346419340322062
268 0.031861206354862281 0.030346419340322062
269 0.013951020336196385 0.013287738518296011
270 0.019924456309942051 0.018977179852856796
271 0.0099668671605983583 0.0094930036518949268
272 0.0039878541258309141 0.0037982582096293682
273 0.037824515196761443 0.03602619420936215
274 0.0039878541258309141 0.0037982582096293682
275 0.0079742279890541723 0.0075951106541364277
276 0.0059812346434960917 0.0056968593491616426
277 0.027883802543523573 0.026558099077649777
278 0.019924456309942051 0.018977179852856796
279 0.0019941106190833335 0.0018993023595719194
280 0.015942539098362907 0.015184575583770898
281 0.0079742279890541723 0.0075951106541364277
282 0.0019941106190833335 0.0018993023595719194
283 0.0079742279890541723 0.0075951106541364277
284 0.017933684384057125 0.0170810561999441
285 0.0059812346434960917 0.0056968593491616426
286 0.073532693495221568 0.070036667301465017
287 0.021914850616987891 0.020872943908494646
288 0.0099668671605983583 0.0094930036518949268
289 0.033849357100058819 0.032240038309544305
290 0.013951020336196385 0.013287738518296011
291 0.015942539098362907 0.015184575583770898
292 0.0099668671605983583 0.0094930036518949268
293 0.037824515196761443 0.03602619420936215
294 0.0059812346434960917 0.0056968593491616426
295 0.023904880993445732 0.022768361440276719
296 0.0019941106190833335 0.0018993023595719194
297 0.0019941106190833335 0.0018993023595719194
298 0.029872701929034129 0.028452445511095936
299 0.011959129539803159 0.011390551030934004
300 0.011959129539803159 0.011390551030934004
301 0.0039878541258309141 0.0037982582096293682
302 0.0019941106190833335 0.0018993023595719194
303 0.0039878541258309141 0.0037982582096293682
304 0.0039878541258309141 0.0037982582096293682
305 0.0079742279890541723 0.0075951106541364277
306 0.0019941106190833335 0.0018993023595719194
307 0.011959129539803159 0.011390551030934004
308 0.0079742279890541723 0.0075951106541364277
309 0.0019941106190833335 0.0018993023595719194
310 0.0019941106190833335 0.0018993023595719194
311 0.0099668671605983583 0.0094930036518949268
312 0.011959129539803159 0.011390551030934004
313 0.0059812346434960917 0.0056968593491616426
314 0.0039878541258309141 0.0037982582096293682
315 0.0059812346434960917 0.0056968593491616426
316 0.0019941106190833335 0.0018993023595719194
317 0.0019941106190833335 0.0018993023595719194
318 0.0059812346434960917 0.0056968593491616426
319 0.0019941106190833335 0.0018993023595719194
320 0.0019941106190833335 0.0018993023595719194
321 0.025894517711513743 0.024663370804846763
322 0.027883802543523573 0.026558099077649777
323 0.011959129539803159 0.011390551030934004
324 0.0079742279890541723 0.0075951106541364277
325 0.013951020336196385 0.013287738518296011
326 0.0079742279890541723 0.0075951106541364277
327 0.0059812346434960917 0.0056968593491616426
328 0.047755784250457012 0.045485297429133875
329 0.011959129539803159 0.011390551030934004
330 0.017933684384057125 0.0170810561999441
331 0.0019941106190833335 0.0018993023595719194
332 0.011959129539803159 0.011390551030934004
333 0.011959129539803159 0.011390551030934004
334 0.0039878541258309141 0.0037982582096293682
335 0.015942539098362907 0.015184575583770898
336 0.023904880993445732 0.022768361440276719
337 0.041798162058577115 0.039810922501270551
338 0.0019941106190833335 0.0018993023595719194
339 0.0079742279890541723 0.0075951106541364277
340 0.011959129539803159 0.011390551030934004
341 0.0019941106190833335 0.0018993023595719194
342 0.0019941106190833335 0.0018993023595719194
343 0.0039878541258309141 0.0037982582096293682
344 0.0039878541258309141 0.0037982582096293682
345 0.013951020336196385 0.013287738518296011
346 0.0039878541258309141 0.0037982582096293682
347 0.0019941106190833335 0.0018993023595719194
348 0.0039878541258309141 0.0037982582096293682
349 0.0079742279890541723 0.0075951106541364277
350 0.0039878541258309141 0.0037982582096293682
351 0.0019941106190833335 0.0018993023595719194
352 0.0099668671605983583 0.0094930036518949268
353 0.0019941106190833335 0.0018993023595719194
354 0.0039878541258309141 0.0037982582096293682
355 0.0059812346434960917 0.0056968593491616426
356 0.0019941106190833335 0.0018993023595719194
357 0.011959129539803159 0.011390551030934004
358 0.0019941106190833335 0.0018993023595719194
359 0.011959129539803159 0.011390551030934004
360 0.021914850616987891 0.020872943908494646
361 0.021914850616987891 0.020872943908494646
362 0.0079742279890541723 0.0075951106541364277
363 0.0099668671605983583 0.0094930036518949268
364 0.0079742279890541723 0.0075951106541364277
365 0.0039878541258309141 0.0037982582096293682
366 0.0039878541258309141 0.0037982582096293682
367 0.0019941106190833335 0.0018993023595719194
368 0.0039878541258309141 0.0037982582096293682
369 0.0019941106190833335 0.0018993023595719194
370 0.0059812346434960917 0.0056968593491616426
371 0.0059812346434960917 0.0056968593491616426
372 0.0019941106190833335 0.0018993023595719194
373 0.0019941106190833335 0.0018993023595719194
374 0.0059812346434960917 0.0056968593491616426
375 0.0039878541258309141 0.0037982582096293682
376 0.0079742279890541723 0.0075951106541364277
377 0.0059812346434960917 0.0056968593491616426
378 0.0019941106190833335 0.0018993023595719194
379 0.0019941106190833335 0.0018993023595719194
380 0.0019941106190833335 0.0018993023595719194
381 0.0039878541258309141 0.0037982582096293682
382 0.0019941106190833335 0.0018993023595719194
383 0.0039878541258309141 0.0037982582096293682
384 0.0039878541258309141 0.0037982582096293682
385 0.0019941106190833335 0.0018993023595719194
386 0.0039878541258309141 0.0037982582096293682
387 0.0039878541258309141 0.0037982582096293682
388 0.0019941106190833335 0.0018993023595719194
389 0.0019941106190833335 0.0018993023595719194
390 0.0059812346434960917 0.0056968593491616426
391 0.0039878541258309141 0.0037982582096293682
392 0.0039878541258309141 0.0037982582096293682
393 0.0019941106190833335 0.0018993023595719194
394 0.0039878541258309141 0.0037982582096293682
395 0.0019941106190833335 0.0018993023595719194
396 0.0039878541258309141 0.0037982582096293682
397 0.0019941106190833335 0.0018993023595719194
398 0.0039878541258309141 0.0037982582096293682
399 0.0019941106190833335 0.0018993023595719194
400 0.0059812346434960917 0.0056968593491616426
401 0.0079742279890541723 0.0075951106541364277
402 0.0019941106190833335 0.0018993023595719194
403 0.0059812346434960917 0.0056968593491616426
404 0.0039878541258309141 0.0037982582096293682
405 0.0019941106190833335 0.0018993023595719194
406 0.0019941106190833335 0.0018993023595719194
407 0.0079742279890541723 0.0075951106541364277
408 0.0019941106190833335 0.0018993023595719194
409 0.0019941106190833335 0.0018993023595719194
410 0.0039878541258309141 0.0037982582096293682
411 0.0019941106190833335 0.0018993023595719194
412 0.0019941106190833335 0.0018993023595719194
413 0.0039878541258309141 0.0037982582096293682
414 0.0019941106190833335 0.0018993023595719194
415 0.0019941106190833335 0.0018993023595719194
416 0.0019941106190833335 0.0018993023595719194
