# #Node_id x y
0 0.20155706847443944 0.2015577241201218
1 0.86914731941229784 0.86915004286184727
2 0.64404012770858088 0.64404210026267006
3 0.36615390122564118 0.36615504822281075
4 0.14286614077901755 0.14286662815071982
5 0.41103755699809341 0.41103885332256235
6 0.84396786034590887 0.84397055812638977
7 0.31828556658403462 0.31828655969325392
8 0.22401341383581369 0.2240140905428874
9 0.46120165555629666 0.46120299481585836
10 0.60268475319433534 0.60268641498554354
11 0.84396786034590887 0.84397055812638977
12 0.067381545656584385 0.067381751794269418
13 0.79462553442925432 0.7946280182667933
14 0.93240602050848531 0.93240887397744676
15 0.50011701620680671 0.5001185225039213
16 0.42819440071058079 0.42819569387623879
17 0.50760014745250892 0.50760163572039418
18 0.39343094577616777 0.39343215356818906
19 0.48485457627774264 0.48485571801057348
20 0.26725034193026953 0.26725112578280108
21 0.7982324399100571 0.79823492943296293
22 0.13067728223772263 0.13067765509419521
23 0.77193986547805427 0.77194228051964542
24 0.080360148165790235 0.080360376567928604
25 0.70174786445336801 0.70174998348503737
26 0.73871649106593007 0.73871872800834248
27 0.63836410368576535 0.63836605650841438
28 0.34737475447995414 0.34737578707923666
29 0.32810665197317135 0.32810761233314389
30 0.7473582636395586 0.74736053468044772
31 0.19011366261822882 0.19011431694473147
32 0.4770727510835906 0.47707422824931672
33 0.72072510077792051 0.72072751026506054
34 0.27771973525876531 0.27772063113163137
35 0.64404012770858088 0.64404210026267006
36 0.39343094577616777 0.39343215356818906
37 0.89832663026222392 0.89832932426102574
38 0.13067728223772263 0.13067765509419521
39 0.89378328836275767 0.89378605772877739
40 0.26725034193026953 0.26725112578280108
41 0.67131813752746672 0.67132027737270672
42 0.16678813006622689 0.16678862972467789
43 0.093177160322089225 0.093177506674581412
44 0.31828556658403462 0.31828655969325392
45 0.15490261198435756 0.15490307494720101
46 0.067381545656584385 0.067381751794269418
47 0.29826197845902835 0.29826294008455551
48 0.11833389932493693 0.11833427485436632
49 0.92507013737733867 0.92507281894844273
50 0.21285644415048333 0.21285708395547603
51 0.24590684827644654 0.24590761200117534
52 0.63836410368576535 0.63836605650841438
53 0.39343094577616777 0.39343215356818906
54 0.67655989734836108 0.67656192524722825
55 0.14286614077901755 0.14286662815071982
56 0.80530292447191121 0.80530543432494384
57 0.38445558964940169 0.38445700908308567
58 0.36615390122564118 0.36615504822281075
59 0.14286614077901755 0.14286662815071982
60 0.53657278541523012 0.53657455886510941
61 0.64964142397607816 0.64964328094625312
62 0.13067728223772263 0.13067765509419521
63 0.85553450359333605 0.85553725082543175
64 0.37536371616204967 0.37536479668176576
65 0.75577183347330557 0.75577449655050621
66 0.61489354147661757 0.61489556617204022
67 0.31828556658403462 0.31828655969325392
68 0.080360148165790235 0.080360376567928604
69 0.080360148165790235 0.080360376567928604
70 0.70658740020659994 0.70658952601486913
71 0.29826197845902835 0.29826294008455551
72 0.093177160322089225 0.093177506674581412
73 0.054239577260191574 0.054239720582578588
74 0.235029692089402 0.235030466105905
75 0.46120165555629666 0.46120299481585836
76 0.63836410368576535 0.63836605650841438
77 0.55732596670448897 0.55732790838762192
78 0.19011366261822882 0.19011431694473147
79 0.48485457627774264 0.48485571801057348
80 0.02745790331196063 0.027457994456843937
81 0.15490261198435756 0.15490307494720101
82 0.84691792149501532 0.84692041936998175
83 0.15490261198435756 0.15490307494720101
84 0.235029692089402 0.235030466105905
85 0.02745790331196063 0.027457994456843937
86 0.080360148165790235 0.080360376567928604
87 0.11833389932493693 0.11833427485436632
88 0.093177160322089225 0.093177506674581412
89 0.013814439944932977 0.013814478948788067
90 0.054239577260191574 0.054239720582578588
91 0.054239577260191574 0.054239720582578588
92 0.080360148165790235 0.080360376567928604
93 0.10583451087685058 0.10583483620424994
94 0.27771973525876531 0.27772063113163137
95 0.63836410368576535 0.63836605650841438
96 0.22401341383581369 0.2240140905428874
97 0.24590684827644654 0.24590761200117534
98 0.13067728223772263 0.13067765509419521
99 0.067381545656584385 0.067381751794269418
100 0.59014926791831557 0.59015114261918222
101 0.013814439944932977 0.013814478948788067
102 0.02745790331196063 0.027457994456843937
103 0.013814439944932977 0.013814478948788067
104 0.10583451087685058 0.10583483620424994
105 0.235029692089402 0.235030466105905
106 0.81888806652078483 0.81889055086589979
107 0.080360148165790235 0.080360376567928604
108 0.02745790331196063 0.027457994456843937
109 0.04093229233712975 0.040932424689944513
110 0.29826197845902835 0.29826294008455551
111 0.013814439944932977 0.013814478948788067
112 0.013814439944932977 0.013814478948788067
113 0.067381545656584385 0.067381751794269418
114 0.054239577260191574 0.054239720582578588
115 0.34737475447995414 0.34737578707923666
116 0.093177160322089225 0.093177506674581412
117 0.02745790331196063 0.027457994456843937
118 0.013814439944932977 0.013814478948788067
119 0.62087809839320274 0.62087993097608218
120 0.02745790331196063 0.027457994456843937
121 0.093177160322089225 0.093177506674581412
122 0.013814439944932977 0.013814478948788067
123 0.02745790331196063 0.027457994456843937
124 0.054239577260191574 0.054239720582578588
125 0.013814439944932977 0.013814478948788067
126 0.080360148165790235 0.080360376567928604
127 0.04093229233712975 0.040932424689944513
128 0.04093229233712975 0.040932424689944513
129 0.13067728223772263 0.13067765509419521
130 0.04093229233712975 0.040932424689944513
131 0.4531098645117424 0.45311121663438503
132 0.054239577260191574 0.054239720582578588
133 0.13067728223772263 0.13067765509419521
134 0.02745790331196063 0.027457994456843937
135 0.02745790331196063 0.027457994456843937
136 0.13067728223772263 0.13067765509419521
137 0.42819440071058079 0.42819569387623879
138 0.04093229233712975 0.040932424689944513
139 0.067381545656584385 0.067381751794269418
140 0.02745790331196063 0.027457994456843937
141 0.013814439944932977 0.013814478948788067
142 0.080360148165790235 0.080360376567928604
143 0.067381545656584385 0.067381751794269418
144 0.067381545656584385 0.067381751794269418
145 0.16678813006622689 0.16678862972467789
146 0.067381545656584385 0.067381751794269418
147 0.02745790331196063 0.027457994456843937
148 0.02745790331196063 0.027457994456843937
149 0.067381545656584385 0.067381751794269418
150 0.067381545656584385 0.067381751794269418
151 0.013814439944932977 0.013814478948788067
152 0.013814439944932977 0.013814478948788067
153 0.13067728223772263 0.13067765509419521
154 0.21285644415048333 0.21285708395547603
155 0.11833389932493693 0.11833427485436632
156 0.83487661247881662 0.83487925494098314
157 0.054239577260191574 0.054239720582578588
158 0.04093229233712975 0.040932424689944513
159 0.38445558964940169 0.38445700908308567
160 0.013814439944932977 0.013814478948788067
161 0.093177160322089225 0.093177506674581412
162 0.02745790331196063 0.027457994456843937
163 0.4531098645117424 0.45311121663438503
164 0.02745790331196063 0.027457994456843937
165 0.15490261198435756 0.15490307494720101
166 0.02745790331196063 0.027457994456843937
167 0.067381545656584385 0.067381751794269418
168 0.013814439944932977 0.013814478948788067
169 0.59014926791831557 0.59015114261918222
170 0.054239577260191574 0.054239720582578588
171 0.28805645683395131 0.28805739025431243
172 0.04093229233712975 0.040932424689944513
173 0.02745790331196063 0.027457994456843937
174 0.30833789289220181 0.30833884252116051
175 0.054239577260191574 0.054239720582578588
176 0.054239577260191574 0.054239720582578588
177 0.067381545656584385 0.067381751794269418
178 0.013814439944932977 0.013814478948788067
179 0.10583451087685058 0.10583483620424994
180 0.013814439944932977 0.013814478948788067
181 0.16678813006622689 0.16678862972467789
182 0.02745790331196063 0.027457994456843937
183 0.24590684827644654 0.24590761200117534
184 0.054239577260191574 0.054239720582578588
185 0.02745790331196063 0.027457994456843937
186 0.55049866074517284 0.55050055083101634
187 0.11833389932493693 0.11833427485436632
188 0.25664657195558394 0.25664729986000545
189 0.21285644415048333 0.21285708395547603
190 0.19011366261822882 0.19011431694473147
191 0.093177160322089225 0.093177506674581412
192 0.59645838109743055 0.59646013345121385
193 0.15490261198435756 0.15490307494720101
194 0.25664657195558394 0.25664729986000545
195 0.17852463783623129 0.17852520932103677
196 0.46918884366627617 0.46919035732138875
197 0.37536371616204967 0.37536479668176576
198 0.49253566224436268 0.49253705485832711
199 0.013814439944932977 0.013814478948788067
200 0.31828556658403462 0.31828655969325392
201 0.02745790331196063 0.027457994456843937
202 0.64964142397607816 0.64964328094625312
203 0.21285644415048333 0.21285708395547603
204 0.093177160322089225 0.093177506674581412
205 0.054239577260191574 0.054239720582578588
206 0.14286614077901755 0.14286662815071982
207 0.21285644415048333 0.21285708395547603
208 0.26725034193026953 0.26725112578280108
209 0.080360148165790235 0.080360376567928604
210 0.067381545656584385 0.067381751794269418
211 0.235029692089402 0.235030466105905
212 0.37536371616204967 0.37536479668176576
213 0.37536371616204967 0.37536479668176576
214 0.067381545656584385 0.067381751794269418
215 0.054239577260191574 0.054239720582578588
216 0.093177160322089225 0.093177506674581412
217 0.054239577260191574 0.054239720582578588
218 0.04093229233712975 0.040932424689944513
219 0.013814439944932977 0.013814478948788067
220 0.26725034193026953 0.26725112578280108
221 0.080360148165790235 0.080360376567928604
222 0.02745790331196063 0.027457994456843937
223 0.080360148165790235 0.080360376567928604
224 0.32810665197317135 0.32810761233314389
225 0.14286614077901755 0.14286662815071982
226 0.054239577260191574 0.054239720582578588
227 0.02745790331196063 0.027457994456843937
228 0.26725034193026953 0.26725112578280108
229 0.054239577260191574 0.054239720582578588
230 0.02745790331196063 0.027457994456843937
231 0.013814439944932977 0.013814478948788067
232 0.04093229233712975 0.040932424689944513
233 0.013814439944932977 0.013814478948788067
234 0.13067728223772263 0.13067765509419521
235 0.20155706847443944 0.2015577241201218
236 0.86108935002846998 0.86109193187672917
237 0.013814439944932977 0.013814478948788067
238 0.080360148165790235 0.080360376567928604
239 0.20155706847443944 0.2015577241201218
240 0.43660755886893937 0.43660898510147356
241 0.054239577260191574 0.054239720582578588
242 0.02745790331196063 0.027457994456843937
243 0.013814439944932977 0.013814478948788067
244 0.013814439944932977 0.013814478948788067
245 0.30833789289220181 0.30833884252116051
246 0.14286614077901755 0.14286662815071982
247 0.02745790331196063 0.027457994456843937
248 0.054239577260191574 0.054239720582578588
249 0.22401341383581369 0.2240140905428874
250 0.013814439944932977 0.013814478948788067
251 0.19011366261822882 0.19011431694473147
252 0.13067728223772263 0.13067765509419521
253 0.04093229233712975 0.040932424689944513
254 0.11833389932493693 0.11833427485436632
255 0.080360148165790235 0.080360376567928604
256 0.04093229233712975 0.040932424689944513
257 0.054239577260191574 0.054239720582578588
258 0.02745790331196063 0.027457994456843937
259 0.10583451087685058 0.10583483620424994
260 0.20155706847443944 0.2015577241201218
261 0.04093229233712975 0.040932424689944513
262 0.25664657195558394 0.25664729986000545
263 0.013814439944932977 0.013814478948788067
264 0.080360148165790235 0.080360376567928604
265 0.02745790331196063 0.027457994456843937
266 0.11833389932493693 0.11833427485436632
267 0.20155706847443944 0.2015577241201218
268 0.20155706847443944 0.2015577241201218
269 0.093177160322089225 0.093177506674581412
270 0.13067728223772263 0.13067765509419521
271 0.067381545656584385 0.067381751794269418
272 0.02745790331196063 0.027457994456843937
273 0.235029692089402 0.235030466105905
274 0.02745790331196063 0.027457994456843937
275 0.054239577260191574 0.054239720582578588
276 0.04093229233712975 0.040932424689944513
277 0.17852463783623129 0.17852520932103677
278 0.13067728223772263 0.13067765509419521
279 0.013814439944932977 0.013814478948788067
280 0.10583451087685058 0.10583483620424994
281 0.054239577260191574 0.054239720582578588
282 0.013814439944932977 0.013814478948788067
283 0.054239577260191574 0.054239720582578588
284 0.11833389932493693 0.11833427485436632
285 0.04093229233712975 0.040932424689944513
286 0.41103755699809341 0.41103885332256235
287 0.14286614077901755 0.14286662815071982
288 0.067381545656584385 0.067381751794269418
289 0.21285644415048333 0.21285708395547603
290 0.093177160322089225 0.093177506674581412
291 0.10583451087685058 0.10583483620424994
292 0.067381545656584385 0.067381751794269418
293 0.235029692089402 0.235030466105905
294 0.04093229233712975 0.040932424689944513
295 0.15490261198435756 0.15490307494720101
296 0.013814439944932977 0.013814478948788067
297 0.013814439944932977 0.013814478948788067
298 0.19011366261822882 0.19011431694473147
299 0.080360148165790235 0.080360376567928604
300 0.080360148165790235 0.080360376567928604
301 0.02745790331196063 0.027457994456843937
302 0.013814439944932977 0.013814478948788067
303 0.02745790331196063 0.027457994456843937
304 0.02745790331196063 0.027457994456843937
305 0.054239577260191574 0.054239720582578588
306 0.013814439944932977 0.013814478948788067
307 0.080360148165790235 0.080360376567928604
308 0.054239577260191574 0.054239720582578588
309 0.013814439944932977 0.013814478948788067
310 0.013814439944932977 0.013814478948788067
311 0.067381545656584385 0.067381751794269418
312 0.080360148165790235 0.080360376567928604
313 0.04093229233712975 0.040932424689944513
314 0.02745790331196063 0.027457994456843937
315 0.04093229233712975 0.040932424689944513
316 0.013814439944932977 0.013814478948788067
317 0.013814439944932977 0.013814478948788067
318 0.04093229233712975 0.040932424689944513
319 0.013814439944932977 0.013814478948788067
320 0.013814439944932977 0.013814478948788067
321 0.16678813006622689 0.16678862972467789
322 0.17852463783623129 0.17852520932103677
323 0.080360148165790235 0.080360376567928604
324 0.054239577260191574 0.054239720582578588
325 0.093177160322089225 0.093177506674581412
326 0.054239577260191574 0.054239720582578588
327 0.04093229233712975 0.040932424689944513
328 0.28805645683395131 0.28805739025431243
329 0.080360148165790235 0.080360376567928604
330 0.11833389932493693 0.11833427485436632
331 0.013814439944932977 0.013814478948788067
332 0.080360148165790235 0.080360376567928604
333 0.080360148165790235 0.080360376567928604
334 0.02745790331196063 0.027457994456843937
335 0.10583451087685058 0.10583483620424994
336 0.15490261198435756 0.15490307494720101
337 0.25664657195558394 0.25664729986000545
338 0.013814439944932977 0.013814478948788067
339 0.054239577260191574 0.054239720582578588
340 0.080360148165790235 0.080360376567928604
341 0.013814439944932977 0.013814478948788067
342 0.013814439944932977 0.013814478948788067
343 0.02745790331196063 0.027457994456843937
344 0.02745790331196063 0.027457994456843937
345 0.093177160322089225 0.093177506674581412
346 0.02745790331196063 0.027457994456843937
347 0.013814439944932977 0.013814478948788067
348 0.02745790331196063 0.027457994456843937
349 0.054239577260191574 0.054239720582578588
350 0.02745790331196063 0.027457994456843937
351 0.013814439944932977 0.013814478948788067
352 0.067381545656584385 0.067381751794269418
353 0.013814439944932977 0.013814478948788067
354 0.02745790331196063 0.027457994456843937
355 0.04093229233712975 0.040932424689944513
356 0.013814439944932977 0.013814478948788067
357 0.080360148165790235 0.080360376567928604
358 0.013814439944932977 0.013814478948788067
359 0.080360148165790235 0.080360376567928604
360 0.14286614077901755 0.14286662815071982
361 0.14286614077901755 0.14286662815071982
362 0.054239577260191574 0.054239720582578588
363 0.067381545656584385 0.067381751794269418
364 0.054239577260191574 0.054239720582578588
365 0.02745790331196063 0.027457994456843937
366 0.02745790331196063 0.027457994456843937
367 0.013814439944932977 0.013814478948788067
368 0.02745790331196063 0.027457994456843937
369 0.013814439944932977 0.013814478948788067
370 0.04093229233712975 0.040932424689944513
371 0.04093229233712975 0.040932424689944513
372 0.013814439944932977 0.013814478948788067
373 0.013814439944932977 0.013814478948788067
374 0.04093229233712975 0.040932424689944513
375 0.02745790331196063 0.027457994456843937
376 0.054239577260191574 0.054239720582578588
377 0.04093229233712975 0.040932424689944513
378 0.013814439944932977 0.013814478948788067
379 0.013814439944932977 0.013814478948788067
380 0.013814439944932977 0.013814478948788067
381 0.02745790331196063 0.027457994456843937
382 0.013814439944932977 0.013814478948788067
383 0.02745790331196063 0.027457994456843937
384 0.02745790331196063 0.027457994456843937
385 0.013814439944932977 0.013814478948788067
386 0.02745790331196063 0.027457994456843937
387 0.02745790331196063 0.027457994456843937
388 0.013814439944932977 0.013814478948788067
389 0.013814439944932977 0.013814478948788067
390 0.04093229233712975 0.040932424689944513
391 0.02745790331196063 0.027457994456843937
392 0.02745790331196063 0.027457994456843937
393 0.013814439944932977 0.013814478948788067
394 0.02745790331196063 0.027457994456843937
395 0.013814439944932977 0.013814478948788067
396 0.02745790331196063 0.027457994456843937
397 0.013814439944932977 0.013814478948788067
398 0.02745790331196063 0.027457994456843937
399 0.013814439944932977 0.013814478948788067
400 0.04093229233712975 0.040932424689944513
401 0.054239577260191574 0.054239720582578588
402 0.013814439944932977 0.013814478948788067
403 0.04093229233712975 0.040932424689944513
404 0.02745790331196063 0.027457994456843937
405 0.013814439944932977 0.013814478948788067
406 0.013814439944932977 0.013814478948788067
407 0.054239577260191574 0.054239720582578588
408 0.013814439944932977 0.013814478948788067
409 0.013814439944932977 0.013814478948788067
410 0.02745790331196063 0.027457994456843937
411 0.013814439944932977 0.013814478948788067
412 0.013814439944932977 0.013814478948788067
413 0.02745790331196063 0.027457994456843937
414 0.013814439944932977 0.013814478948788067
415 0.013814439944932977 0.013814478948788067
416 0.013814439944932977 0.013814478948788067
