# #Node_id x y
0 0.023174488732966077 0.023174488732966077
1 0.023174488732966077 0.023174488732966077
2 0.23174488732966078 0.23174488732966078
3 0.069523466198898237 0.069523466198898237
4 0.046348977465932154 0.046348977465932154
5 0.023174488732966077 0.023174488732966077
6 0.023174488732966077 0.023174488732966077
7 0.023174488732966077 0.023174488732966077
8 0.023174488732966077 0.023174488732966077
9 0.023174488732966077 0.023174488732966077
10 0.023174488732966077 0.023174488732966077
11 0.023174488732966077 0.023174488732966077
12 0.023174488732966077 0.023174488732966077
13 0.046348977465932154 0.046348977465932154
14 0.023174488732966077 0.023174488732966077
15 0.023174488732966077 0.023174488732966077
16 0.092697954931864307 0.092697954931864307
17 0.046348977465932154 0.046348977465932154
18 0.023174488732966077 0.023174488732966077
19 0.023174488732966077 0.023174488732966077
20 0.023174488732966077 0.023174488732966077
21 0.069523466198898237 0.069523466198898237
22 0.023174488732966077 0.023174488732966077
23 0.046348977465932154 0.046348977465932154
24 0.023174488732966077 0.023174488732966077
25 0.023174488732966077 0.023174488732966077
26 0.023174488732966077 0.023174488732966077
27 0.046348977465932154 0.046348977465932154
28 0.023174488732966077 0.023174488732966077
29 0.023174488732966077 0.023174488732966077
30 0.18539590986372861 0.18539590986372861
31 0.023174488732966077 0.023174488732966077
32 0.046348977465932154 0.046348977465932154
33 0.023174488732966077 0.023174488732966077
34 0.023174488732966077 0.023174488732966077
35 0.023174488732966077 0.023174488732966077
36 0.046348977465932154 0.046348977465932154
37 0.023174488732966077 0.023174488732966077
38 0.023174488732966077 0.023174488732966077
39 0.023174488732966077 0.023174488732966077
40 0.046348977465932154 0.046348977465932154
41 0.023174488732966077 0.023174488732966077
42 0.023174488732966077 0.023174488732966077
43 0.046348977465932154 0.046348977465932154
44 0.023174488732966077 0.023174488732966077
45 0.023174488732966077 0.023174488732966077
46 0.023174488732966077 0.023174488732966077
47 0.023174488732966077 0.023174488732966077
48 0.023174488732966077 0.023174488732966077
49 0.023174488732966077 0.023174488732966077
50 0.023174488732966077 0.023174488732966077
51 0.023174488732966077 0.023174488732966077
52 0.023174488732966077 0.023174488732966077
53 0.069523466198898237 0.069523466198898237
54 0.13904693239779647 0.13904693239779647
55 0.023174488732966077 0.023174488732966077
56 0.023174488732966077 0.023174488732966077
57 0.023174488732966077 0.023174488732966077
58 0.023174488732966077 0.023174488732966077
59 0.023174488732966077 0.023174488732966077
60 0.023174488732966077 0.023174488732966077
61 0.023174488732966077 0.023174488732966077
62 0.16222142113076254 0.16222142113076254
63 0.023174488732966077 0.023174488732966077
64 0.023174488732966077 0.023174488732966077
65 0.023174488732966077 0.023174488732966077
66 0.023174488732966077 0.023174488732966077
67 0.023174488732966077 0.023174488732966077
68 0.023174488732966077 0.023174488732966077
69 0.023174488732966077 0.023174488732966077
70 0.023174488732966077 0.023174488732966077
71 0.046348977465932154 0.046348977465932154
72 0.023174488732966077 0.023174488732966077
73 0.023174488732966077 0.023174488732966077
74 0.023174488732966077 0.023174488732966077
75 0.023174488732966077 0.023174488732966077
76 0.023174488732966077 0.023174488732966077
77 0.023174488732966077 0.023174488732966077
78 0.023174488732966077 0.023174488732966077
79 0.023174488732966077 0.023174488732966077
80 0.023174488732966077 0.023174488732966077
81 0.023174488732966077 0.023174488732966077
82 0.046348977465932154 0.046348977465932154
83 0.48666426339228763 0.48666426339228763
84 0.023174488732966077 0.023174488732966077
85 0.023174488732966077 0.023174488732966077
86 0.023174488732966077 0.023174488732966077
87 0.023174488732966077 0.023174488732966077
88 0.023174488732966077 0.023174488732966077
89 0.023174488732966077 0.023174488732966077
90 0.023174488732966077 0.023174488732966077
91 0.023174488732966077 0.023174488732966077
92 0.023174488732966077 0.023174488732966077
93 0.092697954931864307 0.092697954931864307
94 0.023174488732966077 0.023174488732966077
95 0.023174488732966077 0.023174488732966077
96 0.023174488732966077 0.023174488732966077
97 0.023174488732966077 0.023174488732966077
98 0.046348977465932154 0.046348977465932154
99 0.023174488732966077 0.023174488732966077
100 0.023174488732966077 0.023174488732966077
101 0.023174488732966077 0.023174488732966077
102 0.023174488732966077 0.023174488732966077
103 0.023174488732966077 0.023174488732966077
104 0.069523466198898237 0.069523466198898237
105 0.023174488732966077 0.023174488732966077
106 0.023174488732966077 0.023174488732966077
107 0.023174488732966077 0.023174488732966077
108 0.023174488732966077 0.023174488732966077
109 0.046348977465932154 0.046348977465932154
110 0.023174488732966077 0.023174488732966077
111 0.023174488732966077 0.023174488732966077
112 0.092697954931864307 0.092697954931864307
113 0.023174488732966077 0.023174488732966077
114 0.023174488732966077 0.023174488732966077
115 0.13904693239779647 0.13904693239779647
116 0.023174488732966077 0.023174488732966077
117 0.023174488732966077 0.023174488732966077
118 0.023174488732966077 0.023174488732966077
119 0.023174488732966077 0.023174488732966077
120 0.023174488732966077 0.023174488732966077
121 0.023174488732966077 0.023174488732966077
122 0.023174488732966077 0.023174488732966077
123 0.023174488732966077 0.023174488732966077
124 0.046348977465932154 0.046348977465932154
125 0.023174488732966077 0.023174488732966077
126 0.023174488732966077 0.023174488732966077
127 0.023174488732966077 0.023174488732966077
128 0.023174488732966077 0.023174488732966077
129 0.023174488732966077 0.023174488732966077
130 0.023174488732966077 0.023174488732966077
131 0.023174488732966077 0.023174488732966077
132 0.023174488732966077 0.023174488732966077
133 0.023174488732966077 0.023174488732966077
134 0.023174488732966077 0.023174488732966077
135 0.023174488732966077 0.023174488732966077
136 0.023174488732966077 0.023174488732966077
137 0.046348977465932154 0.046348977465932154
138 0.023174488732966077 0.023174488732966077
139 0.023174488732966077 0.023174488732966077
140 0.20857039859669471 0.20857039859669471
141 0.023174488732966077 0.023174488732966077
142 0.046348977465932154 0.046348977465932154
143 0.023174488732966077 0.023174488732966077
144 0.023174488732966077 0.023174488732966077
145 0.023174488732966077 0.023174488732966077
146 0.023174488732966077 0.023174488732966077
147 0.023174488732966077 0.023174488732966077
148 0.046348977465932154 0.046348977465932154
149 0.023174488732966077 0.023174488732966077
150 0.023174488732966077 0.023174488732966077
151 0.023174488732966077 0.023174488732966077
152 0.023174488732966077 0.023174488732966077
153 0.023174488732966077 0.023174488732966077
154 0.023174488732966077 0.023174488732966077
155 0.023174488732966077 0.023174488732966077
156 0.13904693239779647 0.13904693239779647
157 0.046348977465932154 0.046348977465932154
158 0.092697954931864307 0.092697954931864307
159 0.023174488732966077 0.023174488732966077
160 0.023174488732966077 0.023174488732966077
161 0.023174488732966077 0.023174488732966077
162 0.046348977465932154 0.046348977465932154
163 0.069523466198898237 0.069523466198898237
164 0.023174488732966077 0.023174488732966077
165 0.023174488732966077 0.023174488732966077
166 0.023174488732966077 0.023174488732966077
167 0.023174488732966077 0.023174488732966077
168 0.023174488732966077 0.023174488732966077
169 0.023174488732966077 0.023174488732966077
170 0.023174488732966077 0.023174488732966077
171 0.046348977465932154 0.046348977465932154
172 0.023174488732966077 0.023174488732966077
173 0.023174488732966077 0.023174488732966077
174 0.023174488732966077 0.023174488732966077
175 0.023174488732966077 0.023174488732966077
176 0.046348977465932154 0.046348977465932154
177 0.023174488732966077 0.023174488732966077
178 0.023174488732966077 0.023174488732966077
179 0.023174488732966077 0.023174488732966077
180 0.069523466198898237 0.069523466198898237
181 0.023174488732966077 0.023174488732966077
182 0.023174488732966077 0.023174488732966077
183 0.023174488732966077 0.023174488732966077
184 0.046348977465932154 0.046348977465932154
185 0.023174488732966077 0.023174488732966077
186 0.16222142113076254 0.16222142113076254
187 0.023174488732966077 0.023174488732966077
188 0.023174488732966077 0.023174488732966077
189 0.023174488732966077 0.023174488732966077
190 0.023174488732966077 0.023174488732966077
191 0.023174488732966077 0.023174488732966077
192 0.023174488732966077 0.023174488732966077
193 0.023174488732966077 0.023174488732966077
194 0.023174488732966077 0.023174488732966077
195 0.023174488732966077 0.023174488732966077
196 0.046348977465932154 0.046348977465932154
197 0.023174488732966077 0.023174488732966077
198 0.046348977465932154 0.046348977465932154
199 0.023174488732966077 0.023174488732966077
200 0.023174488732966077 0.023174488732966077
201 0.023174488732966077 0.023174488732966077
202 0.046348977465932154 0.046348977465932154
203 0.023174488732966077 0.023174488732966077
204 0.046348977465932154 0.046348977465932154
205 0.13904693239779647 0.13904693239779647
206 0.023174488732966077 0.023174488732966077
207 0.023174488732966077 0.023174488732966077
208 0.023174488732966077 0.023174488732966077
209 0.023174488732966077 0.023174488732966077
210 0.11587244366483039 0.11587244366483039
211 0.023174488732966077 0.023174488732966077
212 0.046348977465932154 0.046348977465932154
213 0.069523466198898237 0.069523466198898237
214 0.023174488732966077 0.023174488732966077
215 0.023174488732966077 0.023174488732966077
216 0.023174488732966077 0.023174488732966077
217 0.023174488732966077 0.023174488732966077
218 0.046348977465932154 0.046348977465932154
219 0.023174488732966077 0.023174488732966077
220 0.046348977465932154 0.046348977465932154
221 0.18539590986372861 0.18539590986372861
222 0.023174488732966077 0.023174488732966077
223 0.023174488732966077 0.023174488732966077
224 0.023174488732966077 0.023174488732966077
225 0.023174488732966077 0.023174488732966077
226 0.023174488732966077 0.023174488732966077
227 0.023174488732966077 0.023174488732966077
228 0.023174488732966077 0.023174488732966077
229 0.046348977465932154 0.046348977465932154
230 0.023174488732966077 0.023174488732966077
231 0.023174488732966077 0.023174488732966077
232 0.023174488732966077 0.023174488732966077
233 0.023174488732966077 0.023174488732966077
234 0.023174488732966077 0.023174488732966077
235 0.046348977465932154 0.046348977465932154
236 0.023174488732966077 0.023174488732966077
237 0.023174488732966077 0.023174488732966077
238 0.069523466198898237 0.069523466198898237
239 0.023174488732966077 0.023174488732966077
240 0.023174488732966077 0.023174488732966077
241 0.023174488732966077 0.023174488732966077
242 0.023174488732966077 0.023174488732966077
243 0.046348977465932154 0.046348977465932154
244 0.023174488732966077 0.023174488732966077
245 0.023174488732966077 0.023174488732966077
246 0.023174488732966077 0.023174488732966077
247 0.069523466198898237 0.069523466198898237
248 0.023174488732966077 0.023174488732966077
249 0.069523466198898237 0.069523466198898237
250 0.023174488732966077 0.023174488732966077
251 0.023174488732966077 0.023174488732966077
252 0.069523466198898237 0.069523466198898237
253 0.023174488732966077 0.023174488732966077
254 0.046348977465932154 0.046348977465932154
255 0.023174488732966077 0.023174488732966077
256 0.023174488732966077 0.023174488732966077
257 0.023174488732966077 0.023174488732966077
258 0.023174488732966077 0.023174488732966077
259 0.023174488732966077 0.023174488732966077
260 0.069523466198898237 0.069523466198898237
261 0.023174488732966077 0.023174488732966077
262 0.046348977465932154 0.046348977465932154
263 0.023174488732966077 0.023174488732966077
264 0.023174488732966077 0.023174488732966077
265 0.023174488732966077 0.023174488732966077
266 0.023174488732966077 0.023174488732966077
267 0.069523466198898237 0.069523466198898237
268 0.023174488732966077 0.023174488732966077
269 0.023174488732966077 0.023174488732966077
270 0.023174488732966077 0.023174488732966077
271 0.023174488732966077 0.023174488732966077
272 0.023174488732966077 0.023174488732966077
273 0.023174488732966077 0.023174488732966077
274 0.023174488732966077 0.023174488732966077
275 0.023174488732966077 0.023174488732966077
276 0.069523466198898237 0.069523466198898237
277 0.023174488732966077 0.023174488732966077
278 0.023174488732966077 0.023174488732966077
279 0.023174488732966077 0.023174488732966077
280 0.023174488732966077 0.023174488732966077
281 0.092697954931864307 0.092697954931864307
282 0.023174488732966077 0.023174488732966077
283 0.13904693239779647 0.13904693239779647
284 0.023174488732966077 0.023174488732966077
285 0.023174488732966077 0.023174488732966077
286 0.023174488732966077 0.023174488732966077
287 0.046348977465932154 0.046348977465932154
288 0.023174488732966077 0.023174488732966077
289 0.046348977465932154 0.046348977465932154
290 0.023174488732966077 0.023174488732966077
291 0.023174488732966077 0.023174488732966077
292 0.023174488732966077 0.023174488732966077
293 0.046348977465932154 0.046348977465932154
294 0.023174488732966077 0.023174488732966077
295 0.069523466198898237 0.069523466198898237
296 0.023174488732966077 0.023174488732966077
297 0.069523466198898237 0.069523466198898237
298 0.023174488732966077 0.023174488732966077
299 0.069523466198898237 0.069523466198898237
300 0.023174488732966077 0.023174488732966077
301 0.046348977465932154 0.046348977465932154
302 0.023174488732966077 0.023174488732966077
303 0.023174488732966077 0.023174488732966077
304 0.16222142113076254 0.16222142113076254
305 0.023174488732966077 0.023174488732966077
306 0.046348977465932154 0.046348977465932154
307 0.046348977465932154 0.046348977465932154
308 0.023174488732966077 0.023174488732966077
309 0.023174488732966077 0.023174488732966077
310 0.023174488732966077 0.023174488732966077
311 0.023174488732966077 0.023174488732966077
312 0.023174488732966077 0.023174488732966077
313 0.023174488732966077 0.023174488732966077
314 0.023174488732966077 0.023174488732966077
315 0.023174488732966077 0.023174488732966077
316 0.023174488732966077 0.023174488732966077
317 0.023174488732966077 0.023174488732966077
318 0.023174488732966077 0.023174488732966077
319 0.023174488732966077 0.023174488732966077
320 0.27809386479559295 0.27809386479559295
321 0.046348977465932154 0.046348977465932154
322 0.023174488732966077 0.023174488732966077
323 0.023174488732966077 0.023174488732966077
324 0.023174488732966077 0.023174488732966077
325 0.92697954931864313 0.92697954931864313
326 0.13904693239779647 0.13904693239779647
327 0.023174488732966077 0.023174488732966077
328 0.023174488732966077 0.023174488732966077
329 0.023174488732966077 0.023174488732966077
330 0.023174488732966077 0.023174488732966077
331 0.069523466198898237 0.069523466198898237
332 0.023174488732966077 0.023174488732966077
333 0.023174488732966077 0.023174488732966077
334 0.023174488732966077 0.023174488732966077
335 0.023174488732966077 0.023174488732966077
336 0.023174488732966077 0.023174488732966077
337 0.023174488732966077 0.023174488732966077
338 0.11587244366483039 0.11587244366483039
339 0.023174488732966077 0.023174488732966077
340 0.023174488732966077 0.023174488732966077
341 0.023174488732966077 0.023174488732966077
342 0.023174488732966077 0.023174488732966077
343 0.023174488732966077 0.023174488732966077
344 0.023174488732966077 0.023174488732966077
345 0.023174488732966077 0.023174488732966077
346 0.023174488732966077 0.023174488732966077
347 0.16222142113076254 0.16222142113076254
348 0.023174488732966077 0.023174488732966077
349 0.023174488732966077 0.023174488732966077
350 0.023174488732966077 0.023174488732966077
351 0.046348977465932154 0.046348977465932154
352 0.023174488732966077 0.023174488732966077
353 0.023174488732966077 0.023174488732966077
354 0.023174488732966077 0.023174488732966077
355 0.046348977465932154 0.046348977465932154
356 0.023174488732966077 0.023174488732966077
357 0.023174488732966077 0.023174488732966077
358 0.023174488732966077 0.023174488732966077
359 0.092697954931864307 0.092697954931864307
360 0.092697954931864307 0.092697954931864307
361 0.023174488732966077 0.023174488732966077
362 0.046348977465932154 0.046348977465932154
363 0.046348977465932154 0.046348977465932154
364 0.023174488732966077 0.023174488732966077
365 0.023174488732966077 0.023174488732966077
366 0.023174488732966077 0.023174488732966077
367 0.023174488732966077 0.023174488732966077
368 0.023174488732966077 0.023174488732966077
369 0.023174488732966077 0.023174488732966077
370 0.13904693239779647 0.13904693239779647
371 0.023174488732966077 0.023174488732966077
372 0.023174488732966077 0.023174488732966077
373 0.023174488732966077 0.023174488732966077
374 0.023174488732966077 0.023174488732966077
375 0.046348977465932154 0.046348977465932154
376 0.18539590986372861 0.18539590986372861
377 0.13904693239779647 0.13904693239779647
378 0.092697954931864307 0.092697954931864307
379 0.023174488732966077 0.023174488732966077
380 0.023174488732966077 0.023174488732966077
381 0.11587244366483039 0.11587244366483039
382 0.023174488732966077 0.023174488732966077
383 0.023174488732966077 0.023174488732966077
384 0.046348977465932154 0.046348977465932154
385 0.023174488732966077 0.023174488732966077
386 0.023174488732966077 0.023174488732966077
387 0.023174488732966077 0.023174488732966077
388 0.023174488732966077 0.023174488732966077
389 0.046348977465932154 0.046348977465932154
390 0.069523466198898237 0.069523466198898237
391 0.023174488732966077 0.023174488732966077
392 0.023174488732966077 0.023174488732966077
393 0.023174488732966077 0.023174488732966077
394 0.023174488732966077 0.023174488732966077
395 0.069523466198898237 0.069523466198898237
396 0.023174488732966077 0.023174488732966077
397 0.023174488732966077 0.023174488732966077
398 0.023174488732966077 0.023174488732966077
399 0.023174488732966077 0.023174488732966077
400 0.023174488732966077 0.023174488732966077
401 0.023174488732966077 0.023174488732966077
402 0.023174488732966077 0.023174488732966077
403 0.023174488732966077 0.023174488732966077
404 0.023174488732966077 0.023174488732966077
405 0.023174488732966077 0.023174488732966077
406 0.023174488732966077 0.023174488732966077
407 0.023174488732966077 0.023174488732966077
408 0.046348977465932154 0.046348977465932154
409 0.023174488732966077 0.023174488732966077
410 0.069523466198898237 0.069523466198898237
411 0.023174488732966077 0.023174488732966077
412 0.023174488732966077 0.023174488732966077
413 0.16222142113076254 0.16222142113076254
414 0.023174488732966077 0.023174488732966077
415 0.83428159438677885 0.83428159438677885
416 0.023174488732966077 0.023174488732966077
417 0.023174488732966077 0.023174488732966077
418 0.069523466198898237 0.069523466198898237
419 0.023174488732966077 0.023174488732966077
420 0.023174488732966077 0.023174488732966077
421 0.023174488732966077 0.023174488732966077
422 0.023174488732966077 0.023174488732966077
423 0.023174488732966077 0.023174488732966077
424 0.023174488732966077 0.023174488732966077
425 0.20857039859669471 0.20857039859669471
426 0.023174488732966077 0.023174488732966077
427 0.023174488732966077 0.023174488732966077
428 0.16222142113076254 0.16222142113076254
429 0.11587244366483039 0.11587244366483039
430 0.023174488732966077 0.023174488732966077
431 0.046348977465932154 0.046348977465932154
432 0.023174488732966077 0.023174488732966077
433 0.023174488732966077 0.023174488732966077
434 0.046348977465932154 0.046348977465932154
435 0.023174488732966077 0.023174488732966077
436 0.023174488732966077 0.023174488732966077
437 0.023174488732966077 0.023174488732966077
438 0.046348977465932154 0.046348977465932154
439 0.023174488732966077 0.023174488732966077
440 0.046348977465932154 0.046348977465932154
441 0.023174488732966077 0.023174488732966077
442 0.023174488732966077 0.023174488732966077
443 0.023174488732966077 0.023174488732966077
444 0.069523466198898237 0.069523466198898237
445 0.046348977465932154 0.046348977465932154
446 0.023174488732966077 0.023174488732966077
447 0.16222142113076254 0.16222142113076254
448 0.023174488732966077 0.023174488732966077
449 0.046348977465932154 0.046348977465932154
450 0.023174488732966077 0.023174488732966077
451 0.023174488732966077 0.023174488732966077
452 0.023174488732966077 0.023174488732966077
453 0.023174488732966077 0.023174488732966077
454 0.046348977465932154 0.046348977465932154
455 0.046348977465932154 0.046348977465932154
456 0.023174488732966077 0.023174488732966077
457 0.023174488732966077 0.023174488732966077
458 0.069523466198898237 0.069523466198898237
459 0.023174488732966077 0.023174488732966077
460 0.023174488732966077 0.023174488732966077
461 0.023174488732966077 0.023174488732966077
462 0.023174488732966077 0.023174488732966077
463 0.023174488732966077 0.023174488732966077
464 0.023174488732966077 0.023174488732966077
465 0.023174488732966077 0.023174488732966077
466 0.023174488732966077 0.023174488732966077
467 0.023174488732966077 0.023174488732966077
468 0.023174488732966077 0.023174488732966077
469 0.092697954931864307 0.092697954931864307
470 0.023174488732966077 0.023174488732966077
471 0.023174488732966077 0.023174488732966077
472 0.023174488732966077 0.023174488732966077
473 0.023174488732966077 0.023174488732966077
474 0.023174488732966077 0.023174488732966077
475 0.023174488732966077 0.023174488732966077
476 0.046348977465932154 0.046348977465932154
477 0.023174488732966077 0.023174488732966077
478 0.046348977465932154 0.046348977465932154
479 0.023174488732966077 0.023174488732966077
480 0.046348977465932154 0.046348977465932154
481 0.046348977465932154 0.046348977465932154
482 0.023174488732966077 0.023174488732966077
483 0.023174488732966077 0.023174488732966077
484 0.023174488732966077 0.023174488732966077
485 0.023174488732966077 0.023174488732966077
486 0.023174488732966077 0.023174488732966077
487 0.023174488732966077 0.023174488732966077
488 0.023174488732966077 0.023174488732966077
489 0.046348977465932154 0.046348977465932154
490 0.023174488732966077 0.023174488732966077
491 0.023174488732966077 0.023174488732966077
492 0.023174488732966077 0.023174488732966077
493 0.023174488732966077 0.023174488732966077
494 0.046348977465932154 0.046348977465932154
495 0.023174488732966077 0.023174488732966077
496 0.023174488732966077 0.023174488732966077
497 0.069523466198898237 0.069523466198898237
498 0.023174488732966077 0.023174488732966077
499 0.046348977465932154 0.046348977465932154
500 0.023174488732966077 0.023174488732966077
501 0.023174488732966077 0.023174488732966077
502 0.046348977465932154 0.046348977465932154
503 0.023174488732966077 0.023174488732966077
504 0.046348977465932154 0.046348977465932154
505 0.023174488732966077 0.023174488732966077
506 0.023174488732966077 0.023174488732966077
507 0.023174488732966077 0.023174488732966077
508 0.069523466198898237 0.069523466198898237
509 0.023174488732966077 0.023174488732966077
510 0.023174488732966077 0.023174488732966077
511 0.023174488732966077 0.023174488732966077
512 0.023174488732966077 0.023174488732966077
513 0.069523466198898237 0.069523466198898237
514 0.023174488732966077 0.023174488732966077
515 0.023174488732966077 0.023174488732966077
516 0.34761733099449116 0.34761733099449116
517 0.046348977465932154 0.046348977465932154
518 0.20857039859669471 0.20857039859669471
519 0.046348977465932154 0.046348977465932154
520 0.023174488732966077 0.023174488732966077
521 0.023174488732966077 0.023174488732966077
522 0.023174488732966077 0.023174488732966077
523 0.023174488732966077 0.023174488732966077
524 0.023174488732966077 0.023174488732966077
525 0.023174488732966077 0.023174488732966077
526 0.023174488732966077 0.023174488732966077
527 0.023174488732966077 0.023174488732966077
528 0.023174488732966077 0.023174488732966077
529 0.023174488732966077 0.023174488732966077
530 0.023174488732966077 0.023174488732966077
531 0.023174488732966077 0.023174488732966077
532 0.023174488732966077 0.023174488732966077
533 0.023174488732966077 0.023174488732966077
534 0.023174488732966077 0.023174488732966077
535 0.023174488732966077 0.023174488732966077
536 0.023174488732966077 0.023174488732966077
537 0.023174488732966077 0.023174488732966077
538 0.046348977465932154 0.046348977465932154
539 0.069523466198898237 0.069523466198898237
540 0.023174488732966077 0.023174488732966077
541 0.023174488732966077 0.023174488732966077
542 0.023174488732966077 0.023174488732966077
543 0.023174488732966077 0.023174488732966077
544 0.023174488732966077 0.023174488732966077
545 0.069523466198898237 0.069523466198898237
546 0.023174488732966077 0.023174488732966077
547 0.023174488732966077 0.023174488732966077
548 0.069523466198898237 0.069523466198898237
549 0.023174488732966077 0.023174488732966077
550 0.023174488732966077 0.023174488732966077
551 0.023174488732966077 0.023174488732966077
552 0.023174488732966077 0.023174488732966077
553 0.18539590986372861 0.18539590986372861
554 0.023174488732966077 0.023174488732966077
555 0.023174488732966077 0.023174488732966077
556 0.023174488732966077 0.023174488732966077
557 0.11587244366483039 0.11587244366483039
558 0.023174488732966077 0.023174488732966077
559 0.023174488732966077 0.023174488732966077
560 0.046348977465932154 0.046348977465932154
561 0.13904693239779647 0.13904693239779647
562 0.023174488732966077 0.023174488732966077
563 0.023174488732966077 0.023174488732966077
564 0.023174488732966077 0.023174488732966077
565 0.023174488732966077 0.023174488732966077
566 0.046348977465932154 0.046348977465932154
567 0.046348977465932154 0.046348977465932154
568 0.023174488732966077 0.023174488732966077
569 0.023174488732966077 0.023174488732966077
570 0.023174488732966077 0.023174488732966077
571 0.023174488732966077 0.023174488732966077
572 0.023174488732966077 0.023174488732966077
573 0.023174488732966077 0.023174488732966077
574 0.046348977465932154 0.046348977465932154
575 0.023174488732966077 0.023174488732966077
576 0.023174488732966077 0.023174488732966077
577 0.046348977465932154 0.046348977465932154
578 0.046348977465932154 0.046348977465932154
579 0.023174488732966077 0.023174488732966077
580 0.023174488732966077 0.023174488732966077
581 0.046348977465932154 0.046348977465932154
582 0.069523466198898237 0.069523466198898237
583 0.023174488732966077 0.023174488732966077
584 0.023174488732966077 0.023174488732966077
585 0.092697954931864307 0.092697954931864307
586 0.023174488732966077 0.023174488732966077
587 0.023174488732966077 0.023174488732966077
588 0.023174488732966077 0.023174488732966077
589 0.023174488732966077 0.023174488732966077
590 0.023174488732966077 0.023174488732966077
591 0.046348977465932154 0.046348977465932154
592 0.023174488732966077 0.023174488732966077
593 0.023174488732966077 0.023174488732966077
594 0.023174488732966077 0.023174488732966077
595 0.023174488732966077 0.023174488732966077
596 0.023174488732966077 0.023174488732966077
597 0.023174488732966077 0.023174488732966077
598 0.023174488732966077 0.023174488732966077
599 0.023174488732966077 0.023174488732966077
600 0.023174488732966077 0.023174488732966077
601 0.069523466198898237 0.069523466198898237
602 0.023174488732966077 0.023174488732966077
603 0.13904693239779647 0.13904693239779647
604 0.023174488732966077 0.023174488732966077
605 0.023174488732966077 0.023174488732966077
606 0.023174488732966077 0.023174488732966077
607 0.023174488732966077 0.023174488732966077
608 0.023174488732966077 0.023174488732966077
609 0.023174488732966077 0.023174488732966077
610 0.046348977465932154 0.046348977465932154
611 0.023174488732966077 0.023174488732966077
612 0.046348977465932154 0.046348977465932154
613 0.023174488732966077 0.023174488732966077
614 0.069523466198898237 0.069523466198898237
615 0.046348977465932154 0.046348977465932154
616 0.023174488732966077 0.023174488732966077
617 0.046348977465932154 0.046348977465932154
618 0.023174488732966077 0.023174488732966077
619 0.046348977465932154 0.046348977465932154
620 0.023174488732966077 0.023174488732966077
621 0.023174488732966077 0.023174488732966077
622 0.023174488732966077 0.023174488732966077
623 0.023174488732966077 0.023174488732966077
624 0.18539590986372861 0.18539590986372861
625 0.023174488732966077 0.023174488732966077
626 0.023174488732966077 0.023174488732966077
627 0.023174488732966077 0.023174488732966077
628 0.046348977465932154 0.046348977465932154
629 0.023174488732966077 0.023174488732966077
630 0.046348977465932154 0.046348977465932154
631 0.023174488732966077 0.023174488732966077
632 0.023174488732966077 0.023174488732966077
633 0.023174488732966077 0.023174488732966077
634 0.023174488732966077 0.023174488732966077
635 0.023174488732966077 0.023174488732966077
636 0.023174488732966077 0.023174488732966077
637 0.023174488732966077 0.023174488732966077
638 0.023174488732966077 0.023174488732966077
639 0.023174488732966077 0.023174488732966077
640 0.023174488732966077 0.023174488732966077
641 0.023174488732966077 0.023174488732966077
642 0.023174488732966077 0.023174488732966077
643 0.023174488732966077 0.023174488732966077
644 0.023174488732966077 0.023174488732966077
645 0.023174488732966077 0.023174488732966077
646 0.046348977465932154 0.046348977465932154
647 0.023174488732966077 0.023174488732966077
648 0.023174488732966077 0.023174488732966077
649 0.046348977465932154 0.046348977465932154
650 0.023174488732966077 0.023174488732966077
651 0.046348977465932154 0.046348977465932154
652 0.023174488732966077 0.023174488732966077
653 0.023174488732966077 0.023174488732966077
654 0.023174488732966077 0.023174488732966077
655 0.023174488732966077 0.023174488732966077
656 0.046348977465932154 0.046348977465932154
657 0.023174488732966077 0.023174488732966077
658 0.023174488732966077 0.023174488732966077
659 0.023174488732966077 0.023174488732966077
660 0.046348977465932154 0.046348977465932154
661 0.023174488732966077 0.023174488732966077
662 0.046348977465932154 0.046348977465932154
663 0.25491937606262688 0.25491937606262688
664 0.023174488732966077 0.023174488732966077
665 0.023174488732966077 0.023174488732966077
666 0.20857039859669471 0.20857039859669471
667 0.023174488732966077 0.023174488732966077
668 0.046348977465932154 0.046348977465932154
669 0.023174488732966077 0.023174488732966077
670 0.069523466198898237 0.069523466198898237
671 0.069523466198898237 0.069523466198898237
672 0.046348977465932154 0.046348977465932154
673 0.023174488732966077 0.023174488732966077
674 0.023174488732966077 0.023174488732966077
675 0.023174488732966077 0.023174488732966077
676 0.023174488732966077 0.023174488732966077
677 0.023174488732966077 0.023174488732966077
678 0.046348977465932154 0.046348977465932154
679 0.023174488732966077 0.023174488732966077
680 0.023174488732966077 0.023174488732966077
681 0.023174488732966077 0.023174488732966077
682 0.023174488732966077 0.023174488732966077
683 0.023174488732966077 0.023174488732966077
684 0.069523466198898237 0.069523466198898237
685 0.046348977465932154 0.046348977465932154
686 0.046348977465932154 0.046348977465932154
687 0.18539590986372861 0.18539590986372861
688 0.023174488732966077 0.023174488732966077
689 0.046348977465932154 0.046348977465932154
690 0.023174488732966077 0.023174488732966077
691 0.023174488732966077 0.023174488732966077
692 0.023174488732966077 0.023174488732966077
693 0.023174488732966077 0.023174488732966077
694 0.023174488732966077 0.023174488732966077
695 0.023174488732966077 0.023174488732966077
696 0.023174488732966077 0.023174488732966077
697 0.023174488732966077 0.023174488732966077
698 0.023174488732966077 0.023174488732966077
699 0.023174488732966077 0.023174488732966077
700 0.023174488732966077 0.023174488732966077
701 0.023174488732966077 0.023174488732966077
702 0.069523466198898237 0.069523466198898237
703 0.023174488732966077 0.023174488732966077
704 0.046348977465932154 0.046348977465932154
705 0.023174488732966077 0.023174488732966077
706 0.023174488732966077 0.023174488732966077
707 0.046348977465932154 0.046348977465932154
708 0.023174488732966077 0.023174488732966077
709 0.023174488732966077 0.023174488732966077
710 0.023174488732966077 0.023174488732966077
711 0.023174488732966077 0.023174488732966077
712 0.11587244366483039 0.11587244366483039
713 0.023174488732966077 0.023174488732966077
714 0.023174488732966077 0.023174488732966077
715 0.046348977465932154 0.046348977465932154
716 0.023174488732966077 0.023174488732966077
717 0.023174488732966077 0.023174488732966077
718 0.046348977465932154 0.046348977465932154
719 0.092697954931864307 0.092697954931864307
720 0.023174488732966077 0.023174488732966077
721 0.023174488732966077 0.023174488732966077
722 0.023174488732966077 0.023174488732966077
723 0.023174488732966077 0.023174488732966077
724 0.046348977465932154 0.046348977465932154
725 0.046348977465932154 0.046348977465932154
726 0.023174488732966077 0.023174488732966077
727 0.023174488732966077 0.023174488732966077
728 0.046348977465932154 0.046348977465932154
729 0.023174488732966077 0.023174488732966077
730 0.023174488732966077 0.023174488732966077
731 0.023174488732966077 0.023174488732966077
732 0.023174488732966077 0.023174488732966077
733 0.023174488732966077 0.023174488732966077
734 0.11587244366483039 0.11587244366483039
735 0.046348977465932154 0.046348977465932154
736 0.023174488732966077 0.023174488732966077
737 0.023174488732966077 0.023174488732966077
738 0.023174488732966077 0.023174488732966077
739 0.069523466198898237 0.069523466198898237
740 0.023174488732966077 0.023174488732966077
741 0.023174488732966077 0.023174488732966077
742 0.023174488732966077 0.023174488732966077
743 0.023174488732966077 0.023174488732966077
744 0.023174488732966077 0.023174488732966077
745 0.046348977465932154 0.046348977465932154
746 0.023174488732966077 0.023174488732966077
747 0.046348977465932154 0.046348977465932154
748 0.023174488732966077 0.023174488732966077
749 0.023174488732966077 0.023174488732966077
750 0.023174488732966077 0.023174488732966077
751 0.30126835352855902 0.30126835352855902
752 0.023174488732966077 0.023174488732966077
753 0.023174488732966077 0.023174488732966077
754 0.069523466198898237 0.069523466198898237
755 0.023174488732966077 0.023174488732966077
756 0.023174488732966077 0.023174488732966077
757 0.023174488732966077 0.023174488732966077
758 0.046348977465932154 0.046348977465932154
759 0.023174488732966077 0.023174488732966077
760 0.023174488732966077 0.023174488732966077
761 0.023174488732966077 0.023174488732966077
762 0.023174488732966077 0.023174488732966077
763 0.023174488732966077 0.023174488732966077
764 0.023174488732966077 0.023174488732966077
765 0.023174488732966077 0.023174488732966077
766 0.046348977465932154 0.046348977465932154
767 0.023174488732966077 0.023174488732966077
768 0.023174488732966077 0.023174488732966077
769 0.18539590986372861 0.18539590986372861
770 0.023174488732966077 0.023174488732966077
771 0.023174488732966077 0.023174488732966077
772 0.023174488732966077 0.023174488732966077
773 0.023174488732966077 0.023174488732966077
774 0.023174488732966077 0.023174488732966077
775 0.11587244366483039 0.11587244366483039
776 0.023174488732966077 0.023174488732966077
777 0.023174488732966077 0.023174488732966077
778 0.023174488732966077 0.023174488732966077
779 0.023174488732966077 0.023174488732966077
780 0.046348977465932154 0.046348977465932154
781 0.023174488732966077 0.023174488732966077
782 0.046348977465932154 0.046348977465932154
783 0.16222142113076254 0.16222142113076254
784 0.023174488732966077 0.023174488732966077
785 0.023174488732966077 0.023174488732966077
786 0.023174488732966077 0.023174488732966077
787 0.023174488732966077 0.023174488732966077
788 0.046348977465932154 0.046348977465932154
789 0.023174488732966077 0.023174488732966077
790 0.023174488732966077 0.023174488732966077
791 0.023174488732966077 0.023174488732966077
792 0.13904693239779647 0.13904693239779647
793 0.023174488732966077 0.023174488732966077
794 0.046348977465932154 0.046348977465932154
795 0.023174488732966077 0.023174488732966077
796 0.023174488732966077 0.023174488732966077
797 0.13904693239779647 0.13904693239779647
798 0.023174488732966077 0.023174488732966077
799 0.092697954931864307 0.092697954931864307
800 0.046348977465932154 0.046348977465932154
801 0.023174488732966077 0.023174488732966077
802 0.023174488732966077 0.023174488732966077
803 0.023174488732966077 0.023174488732966077
804 0.023174488732966077 0.023174488732966077
805 0.023174488732966077 0.023174488732966077
806 0.023174488732966077 0.023174488732966077
807 0.023174488732966077 0.023174488732966077
808 0.023174488732966077 0.023174488732966077
809 0.023174488732966077 0.023174488732966077
810 0.023174488732966077 0.023174488732966077
811 0.046348977465932154 0.046348977465932154
812 0.046348977465932154 0.046348977465932154
813 0.023174488732966077 0.023174488732966077
814 0.023174488732966077 0.023174488732966077
815 0.046348977465932154 0.046348977465932154
816 0.069523466198898237 0.069523466198898237
817 0.023174488732966077 0.023174488732966077
818 0.023174488732966077 0.023174488732966077
819 0.023174488732966077 0.023174488732966077
820 0.023174488732966077 0.023174488732966077
821 0.27809386479559295 0.27809386479559295
822 0.023174488732966077 0.023174488732966077
823 0.11587244366483039 0.11587244366483039
824 0.069523466198898237 0.069523466198898237
825 0.023174488732966077 0.023174488732966077
826 0.023174488732966077 0.023174488732966077
827 0.11587244366483039 0.11587244366483039
828 0.092697954931864307 0.092697954931864307
829 0.023174488732966077 0.023174488732966077
830 0.023174488732966077 0.023174488732966077
831 0.023174488732966077 0.023174488732966077
832 0.023174488732966077 0.023174488732966077
833 0.023174488732966077 0.023174488732966077
834 0.023174488732966077 0.023174488732966077
835 0.023174488732966077 0.023174488732966077
836 0.046348977465932154 0.046348977465932154
837 0.023174488732966077 0.023174488732966077
838 0.023174488732966077 0.023174488732966077
839 0.046348977465932154 0.046348977465932154
840 0.023174488732966077 0.023174488732966077
841 0.092697954931864307 0.092697954931864307
842 0.023174488732966077 0.023174488732966077
843 0.023174488732966077 0.023174488732966077
844 0.046348977465932154 0.046348977465932154
845 0.023174488732966077 0.023174488732966077
846 0.023174488732966077 0.023174488732966077
847 0.023174488732966077 0.023174488732966077
848 0.023174488732966077 0.023174488732966077
849 0.092697954931864307 0.092697954931864307
850 0.023174488732966077 0.023174488732966077
851 0.023174488732966077 0.023174488732966077
852 0.18539590986372861 0.18539590986372861
853 0.046348977465932154 0.046348977465932154
854 0.023174488732966077 0.023174488732966077
855 0.023174488732966077 0.023174488732966077
856 0.023174488732966077 0.023174488732966077
857 0.023174488732966077 0.023174488732966077
858 0.023174488732966077 0.023174488732966077
859 0.023174488732966077 0.023174488732966077
860 0.023174488732966077 0.023174488732966077
861 0.023174488732966077 0.023174488732966077
862 0.023174488732966077 0.023174488732966077
863 1.1818989253812699 1.1818989253812699
864 0.023174488732966077 0.023174488732966077
865 0.023174488732966077 0.023174488732966077
866 0.023174488732966077 0.023174488732966077
867 2.8504621141548276 2.8504621141548276
868 0.023174488732966077 0.023174488732966077
869 0.023174488732966077 0.023174488732966077
870 0.023174488732966077 0.023174488732966077
871 0.023174488732966077 0.023174488732966077
872 0.023174488732966077 0.023174488732966077
873 0.023174488732966077 0.023174488732966077
874 0.069523466198898237 0.069523466198898237
875 0.023174488732966077 0.023174488732966077
876 0.023174488732966077 0.023174488732966077
877 0.023174488732966077 0.023174488732966077
878 0.023174488732966077 0.023174488732966077
879 0.023174488732966077 0.023174488732966077
880 0.046348977465932154 0.046348977465932154
881 0.023174488732966077 0.023174488732966077
882 0.023174488732966077 0.023174488732966077
883 0.023174488732966077 0.023174488732966077
884 0.023174488732966077 0.023174488732966077
885 0.046348977465932154 0.046348977465932154
886 0.046348977465932154 0.046348977465932154
887 0.023174488732966077 0.023174488732966077
888 0.023174488732966077 0.023174488732966077
889 0.023174488732966077 0.023174488732966077
890 0.023174488732966077 0.023174488732966077
891 0.023174488732966077 0.023174488732966077
892 0.023174488732966077 0.023174488732966077
893 0.023174488732966077 0.023174488732966077
894 0.023174488732966077 0.023174488732966077
895 0.37079181972745723 0.37079181972745723
896 0.046348977465932154 0.046348977465932154
897 0.023174488732966077 0.023174488732966077
898 0.023174488732966077 0.023174488732966077
899 0.023174488732966077 0.023174488732966077
900 0.023174488732966077 0.023174488732966077
901 0.023174488732966077 0.023174488732966077
902 0.023174488732966077 0.023174488732966077
903 0.023174488732966077 0.023174488732966077
904 0.023174488732966077 0.023174488732966077
905 0.023174488732966077 0.023174488732966077
906 0.023174488732966077 0.023174488732966077
907 0.023174488732966077 0.023174488732966077
908 0.023174488732966077 0.023174488732966077
909 0.023174488732966077 0.023174488732966077
910 0.023174488732966077 0.023174488732966077
911 0.023174488732966077 0.023174488732966077
912 0.023174488732966077 0.023174488732966077
913 0.023174488732966077 0.023174488732966077
914 0.023174488732966077 0.023174488732966077
915 0.046348977465932154 0.046348977465932154
916 0.023174488732966077 0.023174488732966077
917 0.023174488732966077 0.023174488732966077
918 0.023174488732966077 0.023174488732966077
919 0.023174488732966077 0.023174488732966077
920 0.023174488732966077 0.023174488732966077
921 0.046348977465932154 0.046348977465932154
922 0.023174488732966077 0.023174488732966077
923 0.023174488732966077 0.023174488732966077
924 0.023174488732966077 0.023174488732966077
925 0.023174488732966077 0.023174488732966077
926 0.023174488732966077 0.023174488732966077
927 0.023174488732966077 0.023174488732966077
928 0.023174488732966077 0.023174488732966077
929 0.023174488732966077 0.023174488732966077
930 0.023174488732966077 0.023174488732966077
931 0.023174488732966077 0.023174488732966077
932 0.023174488732966077 0.023174488732966077
933 0.023174488732966077 0.023174488732966077
934 0.046348977465932154 0.046348977465932154
935 0.023174488732966077 0.023174488732966077
936 0.023174488732966077 0.023174488732966077
937 0.023174488732966077 0.023174488732966077
938 0.023174488732966077 0.023174488732966077
939 0.023174488732966077 0.023174488732966077
940 0.046348977465932154 0.046348977465932154
941 0.023174488732966077 0.023174488732966077
942 0.023174488732966077 0.023174488732966077
943 0.023174488732966077 0.023174488732966077
944 0.023174488732966077 0.023174488732966077
945 0.023174488732966077 0.023174488732966077
946 0.046348977465932154 0.046348977465932154
947 0.023174488732966077 0.023174488732966077
948 0.023174488732966077 0.023174488732966077
949 0.023174488732966077 0.023174488732966077
950 0.023174488732966077 0.023174488732966077
951 0.092697954931864307 0.092697954931864307
952 0.023174488732966077 0.023174488732966077
953 0.046348977465932154 0.046348977465932154
954 0.023174488732966077 0.023174488732966077
955 0.023174488732966077 0.023174488732966077
956 0.023174488732966077 0.023174488732966077
957 0.023174488732966077 0.023174488732966077
958 0.023174488732966077 0.023174488732966077
959 0.092697954931864307 0.092697954931864307
960 0.023174488732966077 0.023174488732966077
961 0.023174488732966077 0.023174488732966077
962 0.023174488732966077 0.023174488732966077
963 0.023174488732966077 0.023174488732966077
964 0.023174488732966077 0.023174488732966077
965 0.023174488732966077 0.023174488732966077
966 0.023174488732966077 0.023174488732966077
967 0.023174488732966077 0.023174488732966077
968 0.023174488732966077 0.023174488732966077
969 0.023174488732966077 0.023174488732966077
970 0.046348977465932154 0.046348977465932154
971 0.023174488732966077 0.023174488732966077
972 0.023174488732966077 0.023174488732966077
973 0.023174488732966077 0.023174488732966077
974 0.023174488732966077 0.023174488732966077
975 0.023174488732966077 0.023174488732966077
976 0.046348977465932154 0.046348977465932154
977 0.023174488732966077 0.023174488732966077
978 0.023174488732966077 0.023174488732966077
979 0.046348977465932154 0.046348977465932154
980 0.023174488732966077 0.023174488732966077
981 0.046348977465932154 0.046348977465932154
982 0.023174488732966077 0.023174488732966077
983 0.023174488732966077 0.023174488732966077
984 0.046348977465932154 0.046348977465932154
985 0.023174488732966077 0.023174488732966077
986 0.023174488732966077 0.023174488732966077
987 0.046348977465932154 0.046348977465932154
988 0.023174488732966077 0.023174488732966077
989 0.023174488732966077 0.023174488732966077
990 0.023174488732966077 0.023174488732966077
991 0.023174488732966077 0.023174488732966077
992 0.092697954931864307 0.092697954931864307
993 0.069523466198898237 0.069523466198898237
994 0.023174488732966077 0.023174488732966077
995 0.023174488732966077 0.023174488732966077
996 0.023174488732966077 0.023174488732966077
997 0.046348977465932154 0.046348977465932154
998 0.023174488732966077 0.023174488732966077
999 0.046348977465932154 0.046348977465932154
