# #Lamda: 0.83409413387769549 Node_id x y
0 0.02297701259791168 0.028205993250633624
1 0.02297701259791168 0.028205993250633624
2 0.22739968868275409 0.27915004428230011
3 0.068750966501102337 0.084396928836645235
4 0.045892831059745391 0.056336866144266098
5 0.02297701259791168 0.028205993250633624
6 0.02297701259791168 0.028205993250633624
7 0.02297701259791168 0.028205993250633624
8 0.02297701259791168 0.028205993250633624
9 0.02297701259791168 0.028205993250633624
10 0.02297701259791168 0.028205993250633624
11 0.02297701259791168 0.028205993250633624
12 0.02297701259791168 0.028205993250633624
13 0.045892831059745391 0.056336866144266098
14 0.02297701259791168 0.028205993250633624
15 0.02297701259791168 0.028205993250633624
16 0.091554747881820997 0.11239026787376265
17 0.045892831059745391 0.056336866144266098
18 0.02297701259791168 0.028205993250633624
19 0.02297701259791168 0.028205993250633624
20 0.02297701259791168 0.028205993250633624
21 0.068750966501102337 0.084396928836645235
22 0.02297701259791168 0.028205993250633624
23 0.045892831059745391 0.056336866144266098
24 0.02297701259791168 0.028205993250633624
25 0.02297701259791168 0.028205993250633624
26 0.02297701259791168 0.028205993250633624
27 0.045892831059745391 0.056336866144266098
28 0.02297701259791168 0.028205993250633624
29 0.02297701259791168 0.028205993250633624
30 0.18228655343356182 0.22377031278189768
31 0.02297701259791168 0.028205993250633624
32 0.045892831059745391 0.056336866144266098
33 0.02297701259791168 0.028205993250633624
34 0.02297701259791168 0.028205993250633624
35 0.02297701259791168 0.028205993250633624
36 0.045892831059745391 0.056336866144266098
37 0.02297701259791168 0.028205993250633624
38 0.02297701259791168 0.028205993250633624
39 0.02297701259791168 0.028205993250633624
40 0.045892831059745391 0.056336866144266098
41 0.02297701259791168 0.028205993250633624
42 0.02297701259791168 0.028205993250633624
43 0.045892831059745391 0.056336866144266098
44 0.02297701259791168 0.028205993250633624
45 0.02297701259791168 0.028205993250633624
46 0.02297701259791168 0.028205993250633624
47 0.02297701259791168 0.028205993250633624
48 0.02297701259791168 0.028205993250633624
49 0.02297701259791168 0.028205993250633624
50 0.02297701259791168 0.028205993250633624
51 0.02297701259791168 0.028205993250633624
52 0.02297701259791168 0.028205993250633624
53 0.068750966501102337 0.084396928836645235
54 0.13701165159184786 0.16819200074813534
55 0.02297701259791168 0.028205993250633624
56 0.02297701259791168 0.028205993250633624
57 0.02297701259791168 0.028205993250633624
58 0.02297701259791168 0.028205993250633624
59 0.02297701259791168 0.028205993250633624
60 0.02297701259791168 0.028205993250633624
61 0.02297701259791168 0.028205993250633624
62 0.15967052487802372 0.19600745431301533
63 0.02297701259791168 0.028205993250633624
64 0.02297701259791168 0.028205993250633624
65 0.02297701259791168 0.028205993250633624
66 0.02297701259791168 0.028205993250633624
67 0.02297701259791168 0.028205993250633624
68 0.02297701259791168 0.028205993250633624
69 0.02297701259791168 0.028205993250633624
70 0.02297701259791168 0.028205993250633624
71 0.045892831059745391 0.056336866144266098
72 0.02297701259791168 0.028205993250633624
73 0.02297701259791168 0.028205993250633624
74 0.02297701259791168 0.028205993250633624
75 0.02297701259791168 0.028205993250633624
76 0.02297701259791168 0.028205993250633624
77 0.02297701259791168 0.028205993250633624
78 0.02297701259791168 0.028205993250633624
79 0.02297701259791168 0.028205993250633624
80 0.02297701259791168 0.028205993250633624
81 0.02297701259791168 0.028205993250633624
82 0.045892831059745391 0.056336866144266098
83 0.47330839517906492 0.58102128564366329
84 0.02297701259791168 0.028205993250633624
85 0.02297701259791168 0.028205993250633624
86 0.02297701259791168 0.028205993250633624
87 0.02297701259791168 0.028205993250633624
88 0.02297701259791168 0.028205993250633624
89 0.02297701259791168 0.028205993250633624
90 0.02297701259791168 0.028205993250633624
91 0.02297701259791168 0.028205993250633624
92 0.02297701259791168 0.028205993250633624
93 0.091554747881820997 0.11239026787376265
94 0.02297701259791168 0.028205993250633624
95 0.02297701259791168 0.028205993250633624
96 0.02297701259791168 0.028205993250633624
97 0.02297701259791168 0.028205993250633624
98 0.045892831059745391 0.056336866144266098
99 0.02297701259791168 0.028205993250633624
100 0.02297701259791168 0.028205993250633624
101 0.02297701259791168 0.028205993250633624
102 0.02297701259791168 0.028205993250633624
103 0.02297701259791168 0.028205993250633624
104 0.068750966501102337 0.084396928836645235
105 0.02297701259791168 0.028205993250633624
106 0.02297701259791168 0.028205993250633624
107 0.02297701259791168 0.028205993250633624
108 0.02297701259791168 0.028205993250633624
109 0.045892831059745391 0.056336866144266098
110 0.02297701259791168 0.028205993250633624
111 0.02297701259791168 0.028205993250633624
112 0.091554747881820997 0.11239026787376265
113 0.02297701259791168 0.028205993250633624
114 0.02297701259791168 0.028205993250633624
115 0.13701165159184786 0.16819200074813534
116 0.02297701259791168 0.028205993250633624
117 0.02297701259791168 0.028205993250633624
118 0.02297701259791168 0.028205993250633624
119 0.02297701259791168 0.028205993250633624
120 0.02297701259791168 0.028205993250633624
121 0.02297701259791168 0.028205993250633624
122 0.02297701259791168 0.028205993250633624
123 0.02297701259791168 0.028205993250633624
124 0.045892831059745391 0.056336866144266098
125 0.02297701259791168 0.028205993250633624
126 0.02297701259791168 0.028205993250633624
127 0.02297701259791168 0.028205993250633624
128 0.02297701259791168 0.028205993250633624
129 0.02297701259791168 0.028205993250633624
130 0.02297701259791168 0.028205993250633624
131 0.02297701259791168 0.028205993250633624
132 0.02297701259791168 0.028205993250633624
133 0.02297701259791168 0.028205993250633624
134 0.02297701259791168 0.028205993250633624
135 0.02297701259791168 0.028205993250633624
136 0.02297701259791168 0.028205993250633624
137 0.045892831059745391 0.056336866144266098
138 0.02297701259791168 0.028205993250633624
139 0.02297701259791168 0.028205993250633624
140 0.20486218091096675 0.25148357592013854
141 0.02297701259791168 0.028205993250633624
142 0.045892831059745391 0.056336866144266098
143 0.02297701259791168 0.028205993250633624
144 0.02297701259791168 0.028205993250633624
145 0.02297701259791168 0.028205993250633624
146 0.02297701259791168 0.028205993250633624
147 0.02297701259791168 0.028205993250633624
148 0.045892831059745391 0.056336866144266098
149 0.02297701259791168 0.028205993250633624
150 0.02297701259791168 0.028205993250633624
151 0.02297701259791168 0.028205993250633624
152 0.02297701259791168 0.028205993250633624
153 0.02297701259791168 0.028205993250633624
154 0.02297701259791168 0.028205993250633624
155 0.02297701259791168 0.028205993250633624
156 0.13701165159184786 0.16819200074813534
157 0.045892831059745391 0.056336866144266098
158 0.091554747881820997 0.11239026787376265
159 0.02297701259791168 0.028205993250633624
160 0.02297701259791168 0.028205993250633624
161 0.02297701259791168 0.028205993250633624
162 0.045892831059745391 0.056336866144266098
163 0.068750966501102337 0.084396928836645235
164 0.02297701259791168 0.028205993250633624
165 0.02297701259791168 0.028205993250633624
166 0.02297701259791168 0.028205993250633624
167 0.02297701259791168 0.028205993250633624
168 0.02297701259791168 0.028205993250633624
169 0.02297701259791168 0.028205993250633624
170 0.02297701259791168 0.028205993250633624
171 0.045892831059745391 0.056336866144266098
172 0.02297701259791168 0.028205993250633624
173 0.02297701259791168 0.028205993250633624
174 0.02297701259791168 0.028205993250633624
175 0.02297701259791168 0.028205993250633624
176 0.045892831059745391 0.056336866144266098
177 0.02297701259791168 0.028205993250633624
178 0.02297701259791168 0.028205993250633624
179 0.02297701259791168 0.028205993250633624
180 0.068750966501102337 0.084396928836645235
181 0.02297701259791168 0.028205993250633624
182 0.02297701259791168 0.028205993250633624
183 0.02297701259791168 0.028205993250633624
184 0.045892831059745391 0.056336866144266098
185 0.02297701259791168 0.028205993250633624
186 0.15967052487802372 0.19600745431301533
187 0.02297701259791168 0.028205993250633624
188 0.02297701259791168 0.028205993250633624
189 0.02297701259791168 0.028205993250633624
190 0.02297701259791168 0.028205993250633624
191 0.02297701259791168 0.028205993250633624
192 0.02297701259791168 0.028205993250633624
193 0.02297701259791168 0.028205993250633624
194 0.02297701259791168 0.028205993250633624
195 0.02297701259791168 0.028205993250633624
196 0.045892831059745391 0.056336866144266098
197 0.02297701259791168 0.028205993250633624
198 0.045892831059745391 0.056336866144266098
199 0.02297701259791168 0.028205993250633624
200 0.02297701259791168 0.028205993250633624
201 0.02297701259791168 0.028205993250633624
202 0.045892831059745391 0.056336866144266098
203 0.02297701259791168 0.028205993250633624
204 0.045892831059745391 0.056336866144266098
205 0.13701165159184786 0.16819200074813534
206 0.02297701259791168 0.028205993250633624
207 0.02297701259791168 0.028205993250633624
208 0.02297701259791168 0.028205993250633624
209 0.02297701259791168 0.028205993250633624
210 0.11430732134828979 0.14032074538449393
211 0.02297701259791168 0.028205993250633624
212 0.045892831059745391 0.056336866144266098
213 0.068750966501102337 0.084396928836645235
214 0.02297701259791168 0.028205993250633624
215 0.02297701259791168 0.028205993250633624
216 0.02297701259791168 0.028205993250633624
217 0.02297701259791168 0.028205993250633624
218 0.045892831059745391 0.056336866144266098
219 0.02297701259791168 0.028205993250633624
220 0.045892831059745391 0.056336866144266098
221 0.18228655343356182 0.22377031278189768
222 0.02297701259791168 0.028205993250633624
223 0.02297701259791168 0.028205993250633624
224 0.02297701259791168 0.028205993250633624
225 0.02297701259791168 0.028205993250633624
226 0.02297701259791168 0.028205993250633624
227 0.02297701259791168 0.028205993250633624
228 0.02297701259791168 0.028205993250633624
229 0.045892831059745391 0.056336866144266098
230 0.02297701259791168 0.028205993250633624
231 0.02297701259791168 0.028205993250633624
232 0.02297701259791168 0.028205993250633624
233 0.02297701259791168 0.028205993250633624
234 0.02297701259791168 0.028205993250633624
235 0.045892831059745391 0.056336866144266098
236 0.02297701259791168 0.028205993250633624
237 0.02297701259791168 0.028205993250633624
238 0.068750966501102337 0.084396928836645235
239 0.02297701259791168 0.028205993250633624
240 0.02297701259791168 0.028205993250633624
241 0.02297701259791168 0.028205993250633624
242 0.02297701259791168 0.028205993250633624
243 0.045892831059745391 0.056336866144266098
244 0.02297701259791168 0.028205993250633624
245 0.02297701259791168 0.028205993250633624
246 0.02297701259791168 0.028205993250633624
247 0.068750966501102337 0.084396928836645235
248 0.02297701259791168 0.028205993250633624
249 0.068750966501102337 0.084396928836645235
250 0.02297701259791168 0.028205993250633624
251 0.02297701259791168 0.028205993250633624
252 0.068750966501102337 0.084396928836645235
253 0.02297701259791168 0.028205993250633624
254 0.045892831059745391 0.056336866144266098
255 0.02297701259791168 0.028205993250633624
256 0.02297701259791168 0.028205993250633624
257 0.02297701259791168 0.028205993250633624
258 0.02297701259791168 0.028205993250633624
259 0.02297701259791168 0.028205993250633624
260 0.068750966501102337 0.084396928836645235
261 0.02297701259791168 0.028205993250633624
262 0.045892831059745391 0.056336866144266098
263 0.02297701259791168 0.028205993250633624
264 0.02297701259791168 0.028205993250633624
265 0.02297701259791168 0.028205993250633624
266 0.02297701259791168 0.028205993250633624
267 0.068750966501102337 0.084396928836645235
268 0.02297701259791168 0.028205993250633624
269 0.02297701259791168 0.028205993250633624
270 0.02297701259791168 0.028205993250633624
271 0.02297701259791168 0.028205993250633624
272 0.02297701259791168 0.028205993250633624
273 0.02297701259791168 0.028205993250633624
274 0.02297701259791168 0.028205993250633624
275 0.02297701259791168 0.028205993250633624
276 0.068750966501102337 0.084396928836645235
277 0.02297701259791168 0.028205993250633624
278 0.02297701259791168 0.028205993250633624
279 0.02297701259791168 0.028205993250633624
280 0.02297701259791168 0.028205993250633624
281 0.091554747881820997 0.11239026787376265
282 0.02297701259791168 0.028205993250633624
283 0.13701165159184786 0.16819200074813534
284 0.02297701259791168 0.028205993250633624
285 0.02297701259791168 0.028205993250633624
286 0.02297701259791168 0.028205993250633624
287 0.045892831059745391 0.056336866144266098
288 0.02297701259791168 0.028205993250633624
289 0.045892831059745391 0.056336866144266098
290 0.02297701259791168 0.028205993250633624
291 0.02297701259791168 0.028205993250633624
292 0.02297701259791168 0.028205993250633624
293 0.045892831059745391 0.056336866144266098
294 0.02297701259791168 0.028205993250633624
295 0.068750966501102337 0.084396928836645235
296 0.02297701259791168 0.028205993250633624
297 0.068750966501102337 0.084396928836645235
298 0.02297701259791168 0.028205993250633624
299 0.068750966501102337 0.084396928836645235
300 0.02297701259791168 0.028205993250633624
301 0.045892831059745391 0.056336866144266098
302 0.02297701259791168 0.028205993250633624
303 0.02297701259791168 0.028205993250633624
304 0.15967052487802372 0.19600745431301533
305 0.02297701259791168 0.028205993250633624
306 0.045892831059745391 0.056336866144266098
307 0.045892831059745391 0.056336866144266098
308 0.02297701259791168 0.028205993250633624
309 0.02297701259791168 0.028205993250633624
310 0.02297701259791168 0.028205993250633624
311 0.02297701259791168 0.028205993250633624
312 0.02297701259791168 0.028205993250633624
313 0.02297701259791168 0.028205993250633624
314 0.02297701259791168 0.028205993250633624
315 0.02297701259791168 0.028205993250633624
316 0.02297701259791168 0.028205993250633624
317 0.02297701259791168 0.028205993250633624
318 0.02297701259791168 0.028205993250633624
319 0.02297701259791168 0.028205993250633624
320 0.27236870106871325 0.33435285424034222
321 0.045892831059745391 0.056336866144266098
322 0.02297701259791168 0.028205993250633624
323 0.02297701259791168 0.028205993250633624
324 0.02297701259791168 0.028205993250633624
325 0.89244587550418464 1.0955437411091049
326 0.13701165159184786 0.16819200074813534
327 0.02297701259791168 0.028205993250633624
328 0.02297701259791168 0.028205993250633624
329 0.02297701259791168 0.028205993250633624
330 0.02297701259791168 0.028205993250633624
331 0.068750966501102337 0.084396928836645235
332 0.02297701259791168 0.028205993250633624
333 0.02297701259791168 0.028205993250633624
334 0.02297701259791168 0.028205993250633624
335 0.02297701259791168 0.028205993250633624
336 0.02297701259791168 0.028205993250633624
337 0.02297701259791168 0.028205993250633624
338 0.11430732134828979 0.14032074538449393
339 0.02297701259791168 0.028205993250633624
340 0.02297701259791168 0.028205993250633624
341 0.02297701259791168 0.028205993250633624
342 0.02297701259791168 0.028205993250633624
343 0.02297701259791168 0.028205993250633624
344 0.02297701259791168 0.028205993250633624
345 0.02297701259791168 0.028205993250633624
346 0.02297701259791168 0.028205993250633624
347 0.15967052487802372 0.19600745431301533
348 0.02297701259791168 0.028205993250633624
349 0.02297701259791168 0.028205993250633624
350 0.02297701259791168 0.028205993250633624
351 0.045892831059745391 0.056336866144266098
352 0.02297701259791168 0.028205993250633624
353 0.02297701259791168 0.028205993250633624
354 0.02297701259791168 0.028205993250633624
355 0.045892831059745391 0.056336866144266098
356 0.02297701259791168 0.028205993250633624
357 0.02297701259791168 0.028205993250633624
358 0.02297701259791168 0.028205993250633624
359 0.091554747881820997 0.11239026787376265
360 0.091554747881820997 0.11239026787376265
361 0.02297701259791168 0.028205993250633624
362 0.045892831059745391 0.056336866144266098
363 0.045892831059745391 0.056336866144266098
364 0.02297701259791168 0.028205993250633624
365 0.02297701259791168 0.028205993250633624
366 0.02297701259791168 0.028205993250633624
367 0.02297701259791168 0.028205993250633624
368 0.02297701259791168 0.028205993250633624
369 0.02297701259791168 0.028205993250633624
370 0.13701165159184786 0.16819200074813534
371 0.02297701259791168 0.028205993250633624
372 0.02297701259791168 0.028205993250633624
373 0.02297701259791168 0.028205993250633624
374 0.02297701259791168 0.028205993250633624
375 0.045892831059745391 0.056336866144266098
376 0.18228655343356182 0.22377031278189768
377 0.13701165159184786 0.16819200074813534
378 0.091554747881820997 0.11239026787376265
379 0.02297701259791168 0.028205993250633624
380 0.02297701259791168 0.028205993250633624
381 0.11430732134828979 0.14032074538449393
382 0.02297701259791168 0.028205993250633624
383 0.02297701259791168 0.028205993250633624
384 0.045892831059745391 0.056336866144266098
385 0.02297701259791168 0.028205993250633624
386 0.02297701259791168 0.028205993250633624
387 0.02297701259791168 0.028205993250633624
388 0.02297701259791168 0.028205993250633624
389 0.045892831059745391 0.056336866144266098
390 0.068750966501102337 0.084396928836645235
391 0.02297701259791168 0.028205993250633624
392 0.02297701259791168 0.028205993250633624
393 0.02297701259791168 0.028205993250633624
394 0.02297701259791168 0.028205993250633624
395 0.068750966501102337 0.084396928836645235
396 0.02297701259791168 0.028205993250633624
397 0.02297701259791168 0.028205993250633624
398 0.02297701259791168 0.028205993250633624
399 0.02297701259791168 0.028205993250633624
400 0.02297701259791168 0.028205993250633624
401 0.02297701259791168 0.028205993250633624
402 0.02297701259791168 0.028205993250633624
403 0.02297701259791168 0.028205993250633624
404 0.02297701259791168 0.028205993250633624
405 0.02297701259791168 0.028205993250633624
406 0.02297701259791168 0.028205993250633624
407 0.02297701259791168 0.028205993250633624
408 0.045892831059745391 0.056336866144266098
409 0.02297701259791168 0.028205993250633624
410 0.068750966501102337 0.084396928836645235
411 0.02297701259791168 0.028205993250633624
412 0.02297701259791168 0.028205993250633624
413 0.15967052487802372 0.19600745431301533
414 0.02297701259791168 0.028205993250633624
415 0.8046394865729708 0.9877548628551186
416 0.02297701259791168 0.028205993250633624
417 0.02297701259791168 0.028205993250633624
418 0.068750966501102337 0.084396928836645235
419 0.02297701259791168 0.028205993250633624
420 0.02297701259791168 0.028205993250633624
421 0.02297701259791168 0.028205993250633624
422 0.02297701259791168 0.028205993250633624
423 0.02297701259791168 0.028205993250633624
424 0.02297701259791168 0.028205993250633624
425 0.20486218091096675 0.25148357592013854
426 0.02297701259791168 0.028205993250633624
427 0.02297701259791168 0.028205993250633624
428 0.15967052487802372 0.19600745431301533
429 0.11430732134828979 0.14032074538449393
430 0.02297701259791168 0.028205993250633624
431 0.045892831059745391 0.056336866144266098
432 0.02297701259791168 0.028205993250633624
433 0.02297701259791168 0.028205993250633624
434 0.045892831059745391 0.056336866144266098
435 0.02297701259791168 0.028205993250633624
436 0.02297701259791168 0.028205993250633624
437 0.02297701259791168 0.028205993250633624
438 0.045892831059745391 0.056336866144266098
439 0.02297701259791168 0.028205993250633624
440 0.045892831059745391 0.056336866144266098
441 0.02297701259791168 0.028205993250633624
442 0.02297701259791168 0.028205993250633624
443 0.02297701259791168 0.028205993250633624
444 0.068750966501102337 0.084396928836645235
445 0.045892831059745391 0.056336866144266098
446 0.02297701259791168 0.028205993250633624
447 0.15967052487802372 0.19600745431301533
448 0.02297701259791168 0.028205993250633624
449 0.045892831059745391 0.056336866144266098
450 0.02297701259791168 0.028205993250633624
451 0.02297701259791168 0.028205993250633624
452 0.02297701259791168 0.028205993250633624
453 0.02297701259791168 0.028205993250633624
454 0.045892831059745391 0.056336866144266098
455 0.045892831059745391 0.056336866144266098
456 0.02297701259791168 0.028205993250633624
457 0.02297701259791168 0.028205993250633624
458 0.068750966501102337 0.084396928836645235
459 0.02297701259791168 0.028205993250633624
460 0.02297701259791168 0.028205993250633624
461 0.02297701259791168 0.028205993250633624
462 0.02297701259791168 0.028205993250633624
463 0.02297701259791168 0.028205993250633624
464 0.02297701259791168 0.028205993250633624
465 0.02297701259791168 0.028205993250633624
466 0.02297701259791168 0.028205993250633624
467 0.02297701259791168 0.028205993250633624
468 0.02297701259791168 0.028205993250633624
469 0.091554747881820997 0.11239026787376265
470 0.02297701259791168 0.028205993250633624
471 0.02297701259791168 0.028205993250633624
472 0.02297701259791168 0.028205993250633624
473 0.02297701259791168 0.028205993250633624
474 0.02297701259791168 0.028205993250633624
475 0.02297701259791168 0.028205993250633624
476 0.045892831059745391 0.056336866144266098
477 0.02297701259791168 0.028205993250633624
478 0.045892831059745391 0.056336866144266098
479 0.02297701259791168 0.028205993250633624
480 0.045892831059745391 0.056336866144266098
481 0.045892831059745391 0.056336866144266098
482 0.02297701259791168 0.028205993250633624
483 0.02297701259791168 0.028205993250633624
484 0.02297701259791168 0.028205993250633624
485 0.02297701259791168 0.028205993250633624
486 0.02297701259791168 0.028205993250633624
487 0.02297701259791168 0.028205993250633624
488 0.02297701259791168 0.028205993250633624
489 0.045892831059745391 0.056336866144266098
490 0.02297701259791168 0.028205993250633624
491 0.02297701259791168 0.028205993250633624
492 0.02297701259791168 0.028205993250633624
493 0.02297701259791168 0.028205993250633624
494 0.045892831059745391 0.056336866144266098
495 0.02297701259791168 0.028205993250633624
496 0.02297701259791168 0.028205993250633624
497 0.068750966501102337 0.084396928836645235
498 0.02297701259791168 0.028205993250633624
499 0.045892831059745391 0.056336866144266098
500 0.02297701259791168 0.028205993250633624
501 0.02297701259791168 0.028205993250633624
502 0.045892831059745391 0.056336866144266098
503 0.02297701259791168 0.028205993250633624
504 0.045892831059745391 0.056336866144266098
505 0.02297701259791168 0.028205993250633624
506 0.02297701259791168 0.028205993250633624
507 0.02297701259791168 0.028205993250633624
508 0.068750966501102337 0.084396928836645235
509 0.02297701259791168 0.028205993250633624
510 0.02297701259791168 0.028205993250633624
511 0.02297701259791168 0.028205993250633624
512 0.02297701259791168 0.028205993250633624
513 0.068750966501102337 0.084396928836645235
514 0.02297701259791168 0.028205993250633624
515 0.02297701259791168 0.028205993250633624
516 0.33958482092437958 0.41686564457387582
517 0.045892831059745391 0.056336866144266098
518 0.20486218091096675 0.25148357592013854
519 0.045892831059745391 0.056336866144266098
520 0.02297701259791168 0.028205993250633624
521 0.02297701259791168 0.028205993250633624
522 0.02297701259791168 0.028205993250633624
523 0.02297701259791168 0.028205993250633624
524 0.02297701259791168 0.028205993250633624
525 0.02297701259791168 0.028205993250633624
526 0.02297701259791168 0.028205993250633624
527 0.02297701259791168 0.028205993250633624
528 0.02297701259791168 0.028205993250633624
529 0.02297701259791168 0.028205993250633624
530 0.02297701259791168 0.028205993250633624
531 0.02297701259791168 0.028205993250633624
532 0.02297701259791168 0.028205993250633624
533 0.02297701259791168 0.028205993250633624
534 0.02297701259791168 0.028205993250633624
535 0.02297701259791168 0.028205993250633624
536 0.02297701259791168 0.028205993250633624
537 0.02297701259791168 0.028205993250633624
538 0.045892831059745391 0.056336866144266098
539 0.068750966501102337 0.084396928836645235
540 0.02297701259791168 0.028205993250633624
541 0.02297701259791168 0.028205993250633624
542 0.02297701259791168 0.028205993250633624
543 0.02297701259791168 0.028205993250633624
544 0.02297701259791168 0.028205993250633624
545 0.068750966501102337 0.084396928836645235
546 0.02297701259791168 0.028205993250633624
547 0.02297701259791168 0.028205993250633624
548 0.068750966501102337 0.084396928836645235
549 0.02297701259791168 0.028205993250633624
550 0.02297701259791168 0.028205993250633624
551 0.02297701259791168 0.028205993250633624
552 0.02297701259791168 0.028205993250633624
553 0.18228655343356182 0.22377031278189768
554 0.02297701259791168 0.028205993250633624
555 0.02297701259791168 0.028205993250633624
556 0.02297701259791168 0.028205993250633624
557 0.11430732134828979 0.14032074538449393
558 0.02297701259791168 0.028205993250633624
559 0.02297701259791168 0.028205993250633624
560 0.045892831059745391 0.056336866144266098
561 0.13701165159184786 0.16819200074813534
562 0.02297701259791168 0.028205993250633624
563 0.02297701259791168 0.028205993250633624
564 0.02297701259791168 0.028205993250633624
565 0.02297701259791168 0.028205993250633624
566 0.045892831059745391 0.056336866144266098
567 0.045892831059745391 0.056336866144266098
568 0.02297701259791168 0.028205993250633624
569 0.02297701259791168 0.028205993250633624
570 0.02297701259791168 0.028205993250633624
571 0.02297701259791168 0.028205993250633624
572 0.02297701259791168 0.028205993250633624
573 0.02297701259791168 0.028205993250633624
574 0.045892831059745391 0.056336866144266098
575 0.02297701259791168 0.028205993250633624
576 0.02297701259791168 0.028205993250633624
577 0.045892831059745391 0.056336866144266098
578 0.045892831059745391 0.056336866144266098
579 0.02297701259791168 0.028205993250633624
580 0.02297701259791168 0.028205993250633624
581 0.045892831059745391 0.056336866144266098
582 0.068750966501102337 0.084396928836645235
583 0.02297701259791168 0.028205993250633624
584 0.02297701259791168 0.028205993250633624
585 0.091554747881820997 0.11239026787376265
586 0.02297701259791168 0.028205993250633624
587 0.02297701259791168 0.028205993250633624
588 0.02297701259791168 0.028205993250633624
589 0.02297701259791168 0.028205993250633624
590 0.02297701259791168 0.028205993250633624
591 0.045892831059745391 0.056336866144266098
592 0.02297701259791168 0.028205993250633624
593 0.02297701259791168 0.028205993250633624
594 0.02297701259791168 0.028205993250633624
595 0.02297701259791168 0.028205993250633624
596 0.02297701259791168 0.028205993250633624
597 0.02297701259791168 0.028205993250633624
598 0.02297701259791168 0.028205993250633624
599 0.02297701259791168 0.028205993250633624
600 0.02297701259791168 0.028205993250633624
601 0.068750966501102337 0.084396928836645235
602 0.02297701259791168 0.028205993250633624
603 0.13701165159184786 0.16819200074813534
604 0.02297701259791168 0.028205993250633624
605 0.02297701259791168 0.028205993250633624
606 0.02297701259791168 0.028205993250633624
607 0.02297701259791168 0.028205993250633624
608 0.02297701259791168 0.028205993250633624
609 0.02297701259791168 0.028205993250633624
610 0.045892831059745391 0.056336866144266098
611 0.02297701259791168 0.028205993250633624
612 0.045892831059745391 0.056336866144266098
613 0.02297701259791168 0.028205993250633624
614 0.068750966501102337 0.084396928836645235
615 0.045892831059745391 0.056336866144266098
616 0.02297701259791168 0.028205993250633624
617 0.045892831059745391 0.056336866144266098
618 0.02297701259791168 0.028205993250633624
619 0.045892831059745391 0.056336866144266098
620 0.02297701259791168 0.028205993250633624
621 0.02297701259791168 0.028205993250633624
622 0.02297701259791168 0.028205993250633624
623 0.02297701259791168 0.028205993250633624
624 0.18228655343356182 0.22377031278189768
625 0.02297701259791168 0.028205993250633624
626 0.02297701259791168 0.028205993250633624
627 0.02297701259791168 0.028205993250633624
628 0.045892831059745391 0.056336866144266098
629 0.02297701259791168 0.028205993250633624
630 0.045892831059745391 0.056336866144266098
631 0.02297701259791168 0.028205993250633624
632 0.02297701259791168 0.028205993250633624
633 0.02297701259791168 0.028205993250633624
634 0.02297701259791168 0.028205993250633624
635 0.02297701259791168 0.028205993250633624
636 0.02297701259791168 0.028205993250633624
637 0.02297701259791168 0.028205993250633624
638 0.02297701259791168 0.028205993250633624
639 0.02297701259791168 0.028205993250633624
640 0.02297701259791168 0.028205993250633624
641 0.02297701259791168 0.028205993250633624
642 0.02297701259791168 0.028205993250633624
643 0.02297701259791168 0.028205993250633624
644 0.02297701259791168 0.028205993250633624
645 0.02297701259791168 0.028205993250633624
646 0.045892831059745391 0.056336866144266098
647 0.02297701259791168 0.028205993250633624
648 0.02297701259791168 0.028205993250633624
649 0.045892831059745391 0.056336866144266098
650 0.02297701259791168 0.028205993250633624
651 0.045892831059745391 0.056336866144266098
652 0.02297701259791168 0.028205993250633624
653 0.02297701259791168 0.028205993250633624
654 0.02297701259791168 0.028205993250633624
655 0.02297701259791168 0.028205993250633624
656 0.045892831059745391 0.056336866144266098
657 0.02297701259791168 0.028205993250633624
658 0.02297701259791168 0.028205993250633624
659 0.02297701259791168 0.028205993250633624
660 0.045892831059745391 0.056336866144266098
661 0.02297701259791168 0.028205993250633624
662 0.045892831059745391 0.056336866144266098
663 0.24990120274869543 0.30677232769135998
664 0.02297701259791168 0.028205993250633624
665 0.02297701259791168 0.028205993250633624
666 0.20486218091096675 0.25148357592013854
667 0.02297701259791168 0.028205993250633624
668 0.045892831059745391 0.056336866144266098
669 0.02297701259791168 0.028205993250633624
670 0.068750966501102337 0.084396928836645235
671 0.068750966501102337 0.084396928836645235
672 0.045892831059745391 0.056336866144266098
673 0.02297701259791168 0.028205993250633624
674 0.02297701259791168 0.028205993250633624
675 0.02297701259791168 0.028205993250633624
676 0.02297701259791168 0.028205993250633624
677 0.02297701259791168 0.028205993250633624
678 0.045892831059745391 0.056336866144266098
679 0.02297701259791168 0.028205993250633624
680 0.02297701259791168 0.028205993250633624
681 0.02297701259791168 0.028205993250633624
682 0.02297701259791168 0.028205993250633624
683 0.02297701259791168 0.028205993250633624
684 0.068750966501102337 0.084396928836645235
685 0.045892831059745391 0.056336866144266098
686 0.045892831059745391 0.056336866144266098
687 0.18228655343356182 0.22377031278189768
688 0.02297701259791168 0.028205993250633624
689 0.045892831059745391 0.056336866144266098
690 0.02297701259791168 0.028205993250633624
691 0.02297701259791168 0.028205993250633624
692 0.02297701259791168 0.028205993250633624
693 0.02297701259791168 0.028205993250633624
694 0.02297701259791168 0.028205993250633624
695 0.02297701259791168 0.028205993250633624
696 0.02297701259791168 0.028205993250633624
697 0.02297701259791168 0.028205993250633624
698 0.02297701259791168 0.028205993250633624
699 0.02297701259791168 0.028205993250633624
700 0.02297701259791168 0.028205993250633624
701 0.02297701259791168 0.028205993250633624
702 0.068750966501102337 0.084396928836645235
703 0.02297701259791168 0.028205993250633624
704 0.045892831059745391 0.056336866144266098
705 0.02297701259791168 0.028205993250633624
706 0.02297701259791168 0.028205993250633624
707 0.045892831059745391 0.056336866144266098
708 0.02297701259791168 0.028205993250633624
709 0.02297701259791168 0.028205993250633624
710 0.02297701259791168 0.028205993250633624
711 0.02297701259791168 0.028205993250633624
712 0.11430732134828979 0.14032074538449393
713 0.02297701259791168 0.028205993250633624
714 0.02297701259791168 0.028205993250633624
715 0.045892831059745391 0.056336866144266098
716 0.02297701259791168 0.028205993250633624
717 0.02297701259791168 0.028205993250633624
718 0.045892831059745391 0.056336866144266098
719 0.091554747881820997 0.11239026787376265
720 0.02297701259791168 0.028205993250633624
721 0.02297701259791168 0.028205993250633624
722 0.02297701259791168 0.028205993250633624
723 0.02297701259791168 0.028205993250633624
724 0.045892831059745391 0.056336866144266098
725 0.045892831059745391 0.056336866144266098
726 0.02297701259791168 0.028205993250633624
727 0.02297701259791168 0.028205993250633624
728 0.045892831059745391 0.056336866144266098
729 0.02297701259791168 0.028205993250633624
730 0.02297701259791168 0.028205993250633624
731 0.02297701259791168 0.028205993250633624
732 0.02297701259791168 0.028205993250633624
733 0.02297701259791168 0.028205993250633624
734 0.11430732134828979 0.14032074538449393
735 0.045892831059745391 0.056336866144266098
736 0.02297701259791168 0.028205993250633624
737 0.02297701259791168 0.028205993250633624
738 0.02297701259791168 0.028205993250633624
739 0.068750966501102337 0.084396928836645235
740 0.02297701259791168 0.028205993250633624
741 0.02297701259791168 0.028205993250633624
742 0.02297701259791168 0.028205993250633624
743 0.02297701259791168 0.028205993250633624
744 0.02297701259791168 0.028205993250633624
745 0.045892831059745391 0.056336866144266098
746 0.02297701259791168 0.028205993250633624
747 0.045892831059745391 0.056336866144266098
748 0.02297701259791168 0.028205993250633624
749 0.02297701259791168 0.028205993250633624
750 0.02297701259791168 0.028205993250633624
751 0.29480402116142218 0.36189387962012159
752 0.02297701259791168 0.028205993250633624
753 0.02297701259791168 0.028205993250633624
754 0.068750966501102337 0.084396928836645235
755 0.02297701259791168 0.028205993250633624
756 0.02297701259791168 0.028205993250633624
757 0.02297701259791168 0.028205993250633624
758 0.045892831059745391 0.056336866144266098
759 0.02297701259791168 0.028205993250633624
760 0.02297701259791168 0.028205993250633624
761 0.02297701259791168 0.028205993250633624
762 0.02297701259791168 0.028205993250633624
763 0.02297701259791168 0.028205993250633624
764 0.02297701259791168 0.028205993250633624
765 0.02297701259791168 0.028205993250633624
766 0.045892831059745391 0.056336866144266098
767 0.02297701259791168 0.028205993250633624
768 0.02297701259791168 0.028205993250633624
769 0.18228655343356182 0.22377031278189768
770 0.02297701259791168 0.028205993250633624
771 0.02297701259791168 0.028205993250633624
772 0.02297701259791168 0.028205993250633624
773 0.02297701259791168 0.028205993250633624
774 0.02297701259791168 0.028205993250633624
775 0.11430732134828979 0.14032074538449393
776 0.02297701259791168 0.028205993250633624
777 0.02297701259791168 0.028205993250633624
778 0.02297701259791168 0.028205993250633624
779 0.02297701259791168 0.028205993250633624
780 0.045892831059745391 0.056336866144266098
781 0.02297701259791168 0.028205993250633624
782 0.045892831059745391 0.056336866144266098
783 0.15967052487802372 0.19600745431301533
784 0.02297701259791168 0.028205993250633624
785 0.02297701259791168 0.028205993250633624
786 0.02297701259791168 0.028205993250633624
787 0.02297701259791168 0.028205993250633624
788 0.045892831059745391 0.056336866144266098
789 0.02297701259791168 0.028205993250633624
790 0.02297701259791168 0.028205993250633624
791 0.02297701259791168 0.028205993250633624
792 0.13701165159184786 0.16819200074813534
793 0.02297701259791168 0.028205993250633624
794 0.045892831059745391 0.056336866144266098
795 0.02297701259791168 0.028205993250633624
796 0.02297701259791168 0.028205993250633624
797 0.13701165159184786 0.16819200074813534
798 0.02297701259791168 0.028205993250633624
799 0.091554747881820997 0.11239026787376265
800 0.045892831059745391 0.056336866144266098
801 0.02297701259791168 0.028205993250633624
802 0.02297701259791168 0.028205993250633624
803 0.02297701259791168 0.028205993250633624
804 0.02297701259791168 0.028205993250633624
805 0.02297701259791168 0.028205993250633624
806 0.02297701259791168 0.028205993250633624
807 0.02297701259791168 0.028205993250633624
808 0.02297701259791168 0.028205993250633624
809 0.02297701259791168 0.028205993250633624
810 0.02297701259791168 0.028205993250633624
811 0.045892831059745391 0.056336866144266098
812 0.045892831059745391 0.056336866144266098
813 0.02297701259791168 0.028205993250633624
814 0.02297701259791168 0.028205993250633624
815 0.045892831059745391 0.056336866144266098
816 0.068750966501102337 0.084396928836645235
817 0.02297701259791168 0.028205993250633624
818 0.02297701259791168 0.028205993250633624
819 0.02297701259791168 0.028205993250633624
820 0.02297701259791168 0.028205993250633624
821 0.27236870106871325 0.33435285424034222
822 0.02297701259791168 0.028205993250633624
823 0.11430732134828979 0.14032074538449393
824 0.068750966501102337 0.084396928836645235
825 0.02297701259791168 0.028205993250633624
826 0.02297701259791168 0.028205993250633624
827 0.11430732134828979 0.14032074538449393
828 0.091554747881820997 0.11239026787376265
829 0.02297701259791168 0.028205993250633624
830 0.02297701259791168 0.028205993250633624
831 0.02297701259791168 0.028205993250633624
832 0.02297701259791168 0.028205993250633624
833 0.02297701259791168 0.028205993250633624
834 0.02297701259791168 0.028205993250633624
835 0.02297701259791168 0.028205993250633624
836 0.045892831059745391 0.056336866144266098
837 0.02297701259791168 0.028205993250633624
838 0.02297701259791168 0.028205993250633624
839 0.045892831059745391 0.056336866144266098
840 0.02297701259791168 0.028205993250633624
841 0.091554747881820997 0.11239026787376265
842 0.02297701259791168 0.028205993250633624
843 0.02297701259791168 0.028205993250633624
844 0.045892831059745391 0.056336866144266098
845 0.02297701259791168 0.028205993250633624
846 0.02297701259791168 0.028205993250633624
847 0.02297701259791168 0.028205993250633624
848 0.02297701259791168 0.028205993250633624
849 0.091554747881820997 0.11239026787376265
850 0.02297701259791168 0.028205993250633624
851 0.02297701259791168 0.028205993250633624
852 0.18228655343356182 0.22377031278189768
853 0.045892831059745391 0.056336866144266098
854 0.02297701259791168 0.028205993250633624
855 0.02297701259791168 0.028205993250633624
856 0.02297701259791168 0.028205993250633624
857 0.02297701259791168 0.028205993250633624
858 0.02297701259791168 0.028205993250633624
859 0.02297701259791168 0.028205993250633624
860 0.02297701259791168 0.028205993250633624
861 0.02297701259791168 0.028205993250633624
862 0.02297701259791168 0.028205993250633624
863 1.1329529138842971 1.3907840327863572
864 0.02297701259791168 0.028205993250633624
865 0.02297701259791168 0.028205993250633624
866 0.02297701259791168 0.028205993250633624
867 2.6812336354121209 3.2914138642496895
868 0.02297701259791168 0.028205993250633624
869 0.02297701259791168 0.028205993250633624
870 0.02297701259791168 0.028205993250633624
871 0.02297701259791168 0.028205993250633624
872 0.02297701259791168 0.028205993250633624
873 0.02297701259791168 0.028205993250633624
874 0.068750966501102337 0.084396928836645235
875 0.02297701259791168 0.028205993250633624
876 0.02297701259791168 0.028205993250633624
877 0.02297701259791168 0.028205993250633624
878 0.02297701259791168 0.028205993250633624
879 0.02297701259791168 0.028205993250633624
880 0.045892831059745391 0.056336866144266098
881 0.02297701259791168 0.028205993250633624
882 0.02297701259791168 0.028205993250633624
883 0.02297701259791168 0.028205993250633624
884 0.02297701259791168 0.028205993250633624
885 0.045892831059745391 0.056336866144266098
886 0.045892831059745391 0.056336866144266098
887 0.02297701259791168 0.028205993250633624
888 0.02297701259791168 0.028205993250633624
889 0.02297701259791168 0.028205993250633624
890 0.02297701259791168 0.028205993250633624
891 0.02297701259791168 0.028205993250633624
892 0.02297701259791168 0.028205993250633624
893 0.02297701259791168 0.028205993250633624
894 0.02297701259791168 0.028205993250633624
895 0.36193334298252072 0.44430011890545956
896 0.045892831059745391 0.056336866144266098
897 0.02297701259791168 0.028205993250633624
898 0.02297701259791168 0.028205993250633624
899 0.02297701259791168 0.028205993250633624
900 0.02297701259791168 0.028205993250633624
901 0.02297701259791168 0.028205993250633624
902 0.02297701259791168 0.028205993250633624
903 0.02297701259791168 0.028205993250633624
904 0.02297701259791168 0.028205993250633624
905 0.02297701259791168 0.028205993250633624
906 0.02297701259791168 0.028205993250633624
907 0.02297701259791168 0.028205993250633624
908 0.02297701259791168 0.028205993250633624
909 0.02297701259791168 0.028205993250633624
910 0.02297701259791168 0.028205993250633624
911 0.02297701259791168 0.028205993250633624
912 0.02297701259791168 0.028205993250633624
913 0.02297701259791168 0.028205993250633624
914 0.02297701259791168 0.028205993250633624
915 0.045892831059745391 0.056336866144266098
916 0.02297701259791168 0.028205993250633624
917 0.02297701259791168 0.028205993250633624
918 0.02297701259791168 0.028205993250633624
919 0.02297701259791168 0.028205993250633624
920 0.02297701259791168 0.028205993250633624
921 0.045892831059745391 0.056336866144266098
922 0.02297701259791168 0.028205993250633624
923 0.02297701259791168 0.028205993250633624
924 0.02297701259791168 0.028205993250633624
925 0.02297701259791168 0.028205993250633624
926 0.02297701259791168 0.028205993250633624
927 0.02297701259791168 0.028205993250633624
928 0.02297701259791168 0.028205993250633624
929 0.02297701259791168 0.028205993250633624
930 0.02297701259791168 0.028205993250633624
931 0.02297701259791168 0.028205993250633624
932 0.02297701259791168 0.028205993250633624
933 0.02297701259791168 0.028205993250633624
934 0.045892831059745391 0.056336866144266098
935 0.02297701259791168 0.028205993250633624
936 0.02297701259791168 0.028205993250633624
937 0.02297701259791168 0.028205993250633624
938 0.02297701259791168 0.028205993250633624
939 0.02297701259791168 0.028205993250633624
940 0.045892831059745391 0.056336866144266098
941 0.02297701259791168 0.028205993250633624
942 0.02297701259791168 0.028205993250633624
943 0.02297701259791168 0.028205993250633624
944 0.02297701259791168 0.028205993250633624
945 0.02297701259791168 0.028205993250633624
946 0.045892831059745391 0.056336866144266098
947 0.02297701259791168 0.028205993250633624
948 0.02297701259791168 0.028205993250633624
949 0.02297701259791168 0.028205993250633624
950 0.02297701259791168 0.028205993250633624
951 0.091554747881820997 0.11239026787376265
952 0.02297701259791168 0.028205993250633624
953 0.045892831059745391 0.056336866144266098
954 0.02297701259791168 0.028205993250633624
955 0.02297701259791168 0.028205993250633624
956 0.02297701259791168 0.028205993250633624
957 0.02297701259791168 0.028205993250633624
958 0.02297701259791168 0.028205993250633624
959 0.091554747881820997 0.11239026787376265
960 0.02297701259791168 0.028205993250633624
961 0.02297701259791168 0.028205993250633624
962 0.02297701259791168 0.028205993250633624
963 0.02297701259791168 0.028205993250633624
964 0.02297701259791168 0.028205993250633624
965 0.02297701259791168 0.028205993250633624
966 0.02297701259791168 0.028205993250633624
967 0.02297701259791168 0.028205993250633624
968 0.02297701259791168 0.028205993250633624
969 0.02297701259791168 0.028205993250633624
970 0.045892831059745391 0.056336866144266098
971 0.02297701259791168 0.028205993250633624
972 0.02297701259791168 0.028205993250633624
973 0.02297701259791168 0.028205993250633624
974 0.02297701259791168 0.028205993250633624
975 0.02297701259791168 0.028205993250633624
976 0.045892831059745391 0.056336866144266098
977 0.02297701259791168 0.028205993250633624
978 0.02297701259791168 0.028205993250633624
979 0.045892831059745391 0.056336866144266098
980 0.02297701259791168 0.028205993250633624
981 0.045892831059745391 0.056336866144266098
982 0.02297701259791168 0.028205993250633624
983 0.02297701259791168 0.028205993250633624
984 0.045892831059745391 0.056336866144266098
985 0.02297701259791168 0.028205993250633624
986 0.02297701259791168 0.028205993250633624
987 0.045892831059745391 0.056336866144266098
988 0.02297701259791168 0.028205993250633624
989 0.02297701259791168 0.028205993250633624
990 0.02297701259791168 0.028205993250633624
991 0.02297701259791168 0.028205993250633624
992 0.091554747881820997 0.11239026787376265
993 0.068750966501102337 0.084396928836645235
994 0.02297701259791168 0.028205993250633624
995 0.02297701259791168 0.028205993250633624
996 0.02297701259791168 0.028205993250633624
997 0.045892831059745391 0.056336866144266098
998 0.02297701259791168 0.028205993250633624
999 0.045892831059745391 0.056336866144266098
