# #Lamda: 0.77032662076117631 Node_id x y
0 0.022411128792962563 0.031184617557228188
1 0.022411128792962563 0.031184617557228188
2 0.22152844276248143 0.30825220047664831
3 0.067026237864023827 0.09326560984048711
4 0.044751428347508906 0.062270677708791168
5 0.022411128792962563 0.031184617557228188
6 0.022411128792962563 0.031184617557228188
7 0.022411128792962563 0.031184617557228188
8 0.022411128792962563 0.031184617557228188
9 0.022411128792962563 0.031184617557228188
10 0.022411128792962563 0.031184617557228188
11 0.022411128792962563 0.031184617557228188
12 0.022411128792962563 0.031184617557228188
13 0.044751428347508906 0.062270677708791168
14 0.022411128792962563 0.031184617557228188
15 0.022411128792962563 0.031184617557228188
16 0.089240749849722231 0.12417663921764169
17 0.044751428347508906 0.062270677708791168
18 0.022411128792962563 0.031184617557228188
19 0.022411128792962563 0.031184617557228188
20 0.022411128792962563 0.031184617557228188
21 0.067026237864023827 0.09326560984048711
22 0.022411128792962563 0.031184617557228188
23 0.044751428347508906 0.062270677708791168
24 0.022411128792962563 0.031184617557228188
25 0.022411128792962563 0.031184617557228188
26 0.022411128792962563 0.031184617557228188
27 0.044751428347508906 0.062270677708791168
28 0.022411128792962563 0.031184617557228188
29 0.022411128792962563 0.031184617557228188
30 0.17759321793123245 0.24711725291061684
31 0.022411128792962563 0.031184617557228188
32 0.044751428347508906 0.062270677708791168
33 0.022411128792962563 0.031184617557228188
34 0.022411128792962563 0.031184617557228188
35 0.022411128792962563 0.031184617557228188
36 0.044751428347508906 0.062270677708791168
37 0.022411128792962563 0.031184617557228188
38 0.022411128792962563 0.031184617557228188
39 0.022411128792962563 0.031184617557228188
40 0.044751428347508906 0.062270677708791168
41 0.022411128792962563 0.031184617557228188
42 0.022411128792962563 0.031184617557228188
43 0.044751428347508906 0.062270677708791168
44 0.022411128792962563 0.031184617557228188
45 0.022411128792962563 0.031184617557228188
46 0.022411128792962563 0.031184617557228188
47 0.022411128792962563 0.031184617557228188
48 0.022411128792962563 0.031184617557228188
49 0.022411128792962563 0.031184617557228188
50 0.022411128792962563 0.031184617557228188
51 0.022411128792962563 0.031184617557228188
52 0.022411128792962563 0.031184617557228188
53 0.067026237864023827 0.09326560984048711
54 0.13350876311337298 0.18577465493556455
55 0.022411128792962563 0.031184617557228188
56 0.022411128792962563 0.031184617557228188
57 0.022411128792962563 0.031184617557228188
58 0.022411128792962563 0.031184617557228188
59 0.022411128792962563 0.031184617557228188
60 0.022411128792962563 0.031184617557228188
61 0.022411128792962563 0.031184617557228188
62 0.15557170745246568 0.21647478109864365
63 0.022411128792962563 0.031184617557228188
64 0.022411128792962563 0.031184617557228188
65 0.022411128792962563 0.031184617557228188
66 0.022411128792962563 0.031184617557228188
67 0.022411128792962563 0.031184617557228188
68 0.022411128792962563 0.031184617557228188
69 0.022411128792962563 0.031184617557228188
70 0.022411128792962563 0.031184617557228188
71 0.044751428347508906 0.062270677708791168
72 0.022411128792962563 0.031184617557228188
73 0.022411128792962563 0.031184617557228188
74 0.022411128792962563 0.031184617557228188
75 0.022411128792962563 0.031184617557228188
76 0.022411128792962563 0.031184617557228188
77 0.022411128792962563 0.031184617557228188
78 0.022411128792962563 0.031184617557228188
79 0.022411128792962563 0.031184617557228188
80 0.022411128792962563 0.031184617557228188
81 0.022411128792962563 0.031184617557228188
82 0.044751428347508906 0.062270677708791168
83 0.46171978331238106 0.64247343336513341
84 0.022411128792962563 0.031184617557228188
85 0.022411128792962563 0.031184617557228188
86 0.022411128792962563 0.031184617557228188
87 0.022411128792962563 0.031184617557228188
88 0.022411128792962563 0.031184617557228188
89 0.022411128792962563 0.031184617557228188
90 0.022411128792962563 0.031184617557228188
91 0.022411128792962563 0.031184617557228188
92 0.022411128792962563 0.031184617557228188
93 0.089240749849722231 0.12417663921764169
94 0.022411128792962563 0.031184617557228188
95 0.022411128792962563 0.031184617557228188
96 0.022411128792962563 0.031184617557228188
97 0.022411128792962563 0.031184617557228188
98 0.044751428347508906 0.062270677708791168
99 0.022411128792962563 0.031184617557228188
100 0.022411128792962563 0.031184617557228188
101 0.022411128792962563 0.031184617557228188
102 0.022411128792962563 0.031184617557228188
103 0.022411128792962563 0.031184617557228188
104 0.067026237864023827 0.09326560984048711
105 0.022411128792962563 0.031184617557228188
106 0.022411128792962563 0.031184617557228188
107 0.022411128792962563 0.031184617557228188
108 0.022411128792962563 0.031184617557228188
109 0.044751428347508906 0.062270677708791168
110 0.022411128792962563 0.031184617557228188
111 0.022411128792962563 0.031184617557228188
112 0.089240749849722231 0.12417663921764169
113 0.022411128792962563 0.031184617557228188
114 0.022411128792962563 0.031184617557228188
115 0.13350876311337298 0.18577465493556455
116 0.022411128792962563 0.031184617557228188
117 0.022411128792962563 0.031184617557228188
118 0.022411128792962563 0.031184617557228188
119 0.022411128792962563 0.031184617557228188
120 0.022411128792962563 0.031184617557228188
121 0.022411128792962563 0.031184617557228188
122 0.022411128792962563 0.031184617557228188
123 0.022411128792962563 0.031184617557228188
124 0.044751428347508906 0.062270677708791168
125 0.022411128792962563 0.031184617557228188
126 0.022411128792962563 0.031184617557228188
127 0.022411128792962563 0.031184617557228188
128 0.022411128792962563 0.031184617557228188
129 0.022411128792962563 0.031184617557228188
130 0.022411128792962563 0.031184617557228188
131 0.022411128792962563 0.031184617557228188
132 0.022411128792962563 0.031184617557228188
133 0.022411128792962563 0.031184617557228188
134 0.022411128792962563 0.031184617557228188
135 0.022411128792962563 0.031184617557228188
136 0.022411128792962563 0.031184617557228188
137 0.044751428347508906 0.062270677708791168
138 0.022411128792962563 0.031184617557228188
139 0.022411128792962563 0.031184617557228188
140 0.19957747608084703 0.27770788888475956
141 0.022411128792962563 0.031184617557228188
142 0.044751428347508906 0.062270677708791168
143 0.022411128792962563 0.031184617557228188
144 0.022411128792962563 0.031184617557228188
145 0.022411128792962563 0.031184617557228188
146 0.022411128792962563 0.031184617557228188
147 0.022411128792962563 0.031184617557228188
148 0.044751428347508906 0.062270677708791168
149 0.022411128792962563 0.031184617557228188
150 0.022411128792962563 0.031184617557228188
151 0.022411128792962563 0.031184617557228188
152 0.022411128792962563 0.031184617557228188
153 0.022411128792962563 0.031184617557228188
154 0.022411128792962563 0.031184617557228188
155 0.022411128792962563 0.031184617557228188
156 0.13350876311337298 0.18577465493556455
157 0.044751428347508906 0.062270677708791168
158 0.089240749849722231 0.12417663921764169
159 0.022411128792962563 0.031184617557228188
160 0.022411128792962563 0.031184617557228188
161 0.022411128792962563 0.031184617557228188
162 0.044751428347508906 0.062270677708791168
163 0.067026237864023827 0.09326560984048711
164 0.022411128792962563 0.031184617557228188
165 0.022411128792962563 0.031184617557228188
166 0.022411128792962563 0.031184617557228188
167 0.022411128792962563 0.031184617557228188
168 0.022411128792962563 0.031184617557228188
169 0.022411128792962563 0.031184617557228188
170 0.022411128792962563 0.031184617557228188
171 0.044751428347508906 0.062270677708791168
172 0.022411128792962563 0.031184617557228188
173 0.022411128792962563 0.031184617557228188
174 0.022411128792962563 0.031184617557228188
175 0.022411128792962563 0.031184617557228188
176 0.044751428347508906 0.062270677708791168
177 0.022411128792962563 0.031184617557228188
178 0.022411128792962563 0.031184617557228188
179 0.022411128792962563 0.031184617557228188
180 0.067026237864023827 0.09326560984048711
181 0.022411128792962563 0.031184617557228188
182 0.022411128792962563 0.031184617557228188
183 0.022411128792962563 0.031184617557228188
184 0.044751428347508906 0.062270677708791168
185 0.022411128792962563 0.031184617557228188
186 0.15557170745246568 0.21647478109864365
187 0.022411128792962563 0.031184617557228188
188 0.022411128792962563 0.031184617557228188
189 0.022411128792962563 0.031184617557228188
190 0.022411128792962563 0.031184617557228188
191 0.022411128792962563 0.031184617557228188
192 0.022411128792962563 0.031184617557228188
193 0.022411128792962563 0.031184617557228188
194 0.022411128792962563 0.031184617557228188
195 0.022411128792962563 0.031184617557228188
196 0.044751428347508906 0.062270677708791168
197 0.022411128792962563 0.031184617557228188
198 0.044751428347508906 0.062270677708791168
199 0.022411128792962563 0.031184617557228188
200 0.022411128792962563 0.031184617557228188
201 0.022411128792962563 0.031184617557228188
202 0.044751428347508906 0.062270677708791168
203 0.022411128792962563 0.031184617557228188
204 0.044751428347508906 0.062270677708791168
205 0.13350876311337298 0.18577465493556455
206 0.022411128792962563 0.031184617557228188
207 0.022411128792962563 0.031184617557228188
208 0.022411128792962563 0.031184617557228188
209 0.022411128792962563 0.031184617557228188
210 0.11139998317796573 0.15501074949769417
211 0.022411128792962563 0.031184617557228188
212 0.044751428347508906 0.062270677708791168
213 0.067026237864023827 0.09326560984048711
214 0.022411128792962563 0.031184617557228188
215 0.022411128792962563 0.031184617557228188
216 0.022411128792962563 0.031184617557228188
217 0.022411128792962563 0.031184617557228188
218 0.044751428347508906 0.062270677708791168
219 0.022411128792962563 0.031184617557228188
220 0.044751428347508906 0.062270677708791168
221 0.17759321793123245 0.24711725291061684
222 0.022411128792962563 0.031184617557228188
223 0.022411128792962563 0.031184617557228188
224 0.022411128792962563 0.031184617557228188
225 0.022411128792962563 0.031184617557228188
226 0.022411128792962563 0.031184617557228188
227 0.022411128792962563 0.031184617557228188
228 0.022411128792962563 0.031184617557228188
229 0.044751428347508906 0.062270677708791168
230 0.022411128792962563 0.031184617557228188
231 0.022411128792962563 0.031184617557228188
232 0.022411128792962563 0.031184617557228188
233 0.022411128792962563 0.031184617557228188
234 0.022411128792962563 0.031184617557228188
235 0.044751428347508906 0.062270677708791168
236 0.022411128792962563 0.031184617557228188
237 0.022411128792962563 0.031184617557228188
238 0.067026237864023827 0.09326560984048711
239 0.022411128792962563 0.031184617557228188
240 0.022411128792962563 0.031184617557228188
241 0.022411128792962563 0.031184617557228188
242 0.022411128792962563 0.031184617557228188
243 0.044751428347508906 0.062270677708791168
244 0.022411128792962563 0.031184617557228188
245 0.022411128792962563 0.031184617557228188
246 0.022411128792962563 0.031184617557228188
247 0.067026237864023827 0.09326560984048711
248 0.022411128792962563 0.031184617557228188
249 0.067026237864023827 0.09326560984048711
250 0.022411128792962563 0.031184617557228188
251 0.022411128792962563 0.031184617557228188
252 0.067026237864023827 0.09326560984048711
253 0.022411128792962563 0.031184617557228188
254 0.044751428347508906 0.062270677708791168
255 0.022411128792962563 0.031184617557228188
256 0.022411128792962563 0.031184617557228188
257 0.022411128792962563 0.031184617557228188
258 0.022411128792962563 0.031184617557228188
259 0.022411128792962563 0.031184617557228188
260 0.067026237864023827 0.09326560984048711
261 0.022411128792962563 0.031184617557228188
262 0.044751428347508906 0.062270677708791168
263 0.022411128792962563 0.031184617557228188
264 0.022411128792962563 0.031184617557228188
265 0.022411128792962563 0.031184617557228188
266 0.022411128792962563 0.031184617557228188
267 0.067026237864023827 0.09326560984048711
268 0.022411128792962563 0.031184617557228188
269 0.022411128792962563 0.031184617557228188
270 0.022411128792962563 0.031184617557228188
271 0.022411128792962563 0.031184617557228188
272 0.022411128792962563 0.031184617557228188
273 0.022411128792962563 0.031184617557228188
274 0.022411128792962563 0.031184617557228188
275 0.022411128792962563 0.031184617557228188
276 0.067026237864023827 0.09326560984048711
277 0.022411128792962563 0.031184617557228188
278 0.022411128792962563 0.031184617557228188
279 0.022411128792962563 0.031184617557228188
280 0.022411128792962563 0.031184617557228188
281 0.089240749849722231 0.12417663921764169
282 0.022411128792962563 0.031184617557228188
283 0.13350876311337298 0.18577465493556455
284 0.022411128792962563 0.031184617557228188
285 0.022411128792962563 0.031184617557228188
286 0.022411128792962563 0.031184617557228188
287 0.044751428347508906 0.062270677708791168
288 0.022411128792962563 0.031184617557228188
289 0.044751428347508906 0.062270677708791168
290 0.022411128792962563 0.031184617557228188
291 0.022411128792962563 0.031184617557228188
292 0.022411128792962563 0.031184617557228188
293 0.044751428347508906 0.062270677708791168
294 0.022411128792962563 0.031184617557228188
295 0.067026237864023827 0.09326560984048711
296 0.022411128792962563 0.031184617557228188
297 0.067026237864023827 0.09326560984048711
298 0.022411128792962563 0.031184617557228188
299 0.067026237864023827 0.09326560984048711
300 0.022411128792962563 0.031184617557228188
301 0.044751428347508906 0.062270677708791168
302 0.022411128792962563 0.031184617557228188
303 0.022411128792962563 0.031184617557228188
304 0.15557170745246568 0.21647478109864365
305 0.022411128792962563 0.031184617557228188
306 0.044751428347508906 0.062270677708791168
307 0.044751428347508906 0.062270677708791168
308 0.022411128792962563 0.031184617557228188
309 0.022411128792962563 0.031184617557228188
310 0.022411128792962563 0.031184617557228188
311 0.022411128792962563 0.031184617557228188
312 0.022411128792962563 0.031184617557228188
313 0.022411128792962563 0.031184617557228188
314 0.022411128792962563 0.031184617557228188
315 0.022411128792962563 0.031184617557228188
316 0.022411128792962563 0.031184617557228188
317 0.022411128792962563 0.031184617557228188
318 0.022411128792962563 0.031184617557228188
319 0.022411128792962563 0.031184617557228188
320 0.26534525919456403 0.36922238522873135
321 0.044751428347508906 0.062270677708791168
322 0.022411128792962563 0.031184617557228188
323 0.022411128792962563 0.031184617557228188
324 0.022411128792962563 0.031184617557228188
325 0.87708172718525468 1.2204409015441702
326 0.13350876311337298 0.18577465493556455
327 0.022411128792962563 0.031184617557228188
328 0.022411128792962563 0.031184617557228188
329 0.022411128792962563 0.031184617557228188
330 0.022411128792962563 0.031184617557228188
331 0.067026237864023827 0.09326560984048711
332 0.022411128792962563 0.031184617557228188
333 0.022411128792962563 0.031184617557228188
334 0.022411128792962563 0.031184617557228188
335 0.022411128792962563 0.031184617557228188
336 0.022411128792962563 0.031184617557228188
337 0.022411128792962563 0.031184617557228188
338 0.11139998317796573 0.15501074949769417
339 0.022411128792962563 0.031184617557228188
340 0.022411128792962563 0.031184617557228188
341 0.022411128792962563 0.031184617557228188
342 0.022411128792962563 0.031184617557228188
343 0.022411128792962563 0.031184617557228188
344 0.022411128792962563 0.031184617557228188
345 0.022411128792962563 0.031184617557228188
346 0.022411128792962563 0.031184617557228188
347 0.15557170745246568 0.21647478109864365
348 0.022411128792962563 0.031184617557228188
349 0.022411128792962563 0.031184617557228188
350 0.022411128792962563 0.031184617557228188
351 0.044751428347508906 0.062270677708791168
352 0.022411128792962563 0.031184617557228188
353 0.022411128792962563 0.031184617557228188
354 0.022411128792962563 0.031184617557228188
355 0.044751428347508906 0.062270677708791168
356 0.022411128792962563 0.031184617557228188
357 0.022411128792962563 0.031184617557228188
358 0.022411128792962563 0.031184617557228188
359 0.089240749849722231 0.12417663921764169
360 0.089240749849722231 0.12417663921764169
361 0.022411128792962563 0.031184617557228188
362 0.044751428347508906 0.062270677708791168
363 0.044751428347508906 0.062270677708791168
364 0.022411128792962563 0.031184617557228188
365 0.022411128792962563 0.031184617557228188
366 0.022411128792962563 0.031184617557228188
367 0.022411128792962563 0.031184617557228188
368 0.022411128792962563 0.031184617557228188
369 0.022411128792962563 0.031184617557228188
370 0.13350876311337298 0.18577465493556455
371 0.022411128792962563 0.031184617557228188
372 0.022411128792962563 0.031184617557228188
373 0.022411128792962563 0.031184617557228188
374 0.022411128792962563 0.031184617557228188
375 0.044751428347508906 0.062270677708791168
376 0.17759321793123245 0.24711725291061684
377 0.13350876311337298 0.18577465493556455
378 0.089240749849722231 0.12417663921764169
379 0.022411128792962563 0.031184617557228188
380 0.022411128792962563 0.031184617557228188
381 0.11139998317796573 0.15501074949769417
382 0.022411128792962563 0.031184617557228188
383 0.022411128792962563 0.031184617557228188
384 0.044751428347508906 0.062270677708791168
385 0.022411128792962563 0.031184617557228188
386 0.022411128792962563 0.031184617557228188
387 0.022411128792962563 0.031184617557228188
388 0.022411128792962563 0.031184617557228188
389 0.044751428347508906 0.062270677708791168
390 0.067026237864023827 0.09326560984048711
391 0.022411128792962563 0.031184617557228188
392 0.022411128792962563 0.031184617557228188
393 0.022411128792962563 0.031184617557228188
394 0.022411128792962563 0.031184617557228188
395 0.067026237864023827 0.09326560984048711
396 0.022411128792962563 0.031184617557228188
397 0.022411128792962563 0.031184617557228188
398 0.022411128792962563 0.031184617557228188
399 0.022411128792962563 0.031184617557228188
400 0.022411128792962563 0.031184617557228188
401 0.022411128792962563 0.031184617557228188
402 0.022411128792962563 0.031184617557228188
403 0.022411128792962563 0.031184617557228188
404 0.022411128792962563 0.031184617557228188
405 0.022411128792962563 0.031184617557228188
406 0.022411128792962563 0.031184617557228188
407 0.022411128792962563 0.031184617557228188
408 0.044751428347508906 0.062270677708791168
409 0.022411128792962563 0.031184617557228188
410 0.067026237864023827 0.09326560984048711
411 0.022411128792962563 0.031184617557228188
412 0.022411128792962563 0.031184617557228188
413 0.15557170745246568 0.21647478109864365
414 0.022411128792962563 0.031184617557228188
415 0.78926006031661988 1.0982388866507098
416 0.022411128792962563 0.031184617557228188
417 0.022411128792962563 0.031184617557228188
418 0.067026237864023827 0.09326560984048711
419 0.022411128792962563 0.031184617557228188
420 0.022411128792962563 0.031184617557228188
421 0.022411128792962563 0.031184617557228188
422 0.022411128792962563 0.031184617557228188
423 0.022411128792962563 0.031184617557228188
424 0.022411128792962563 0.031184617557228188
425 0.19957747608084703 0.27770788888475956
426 0.022411128792962563 0.031184617557228188
427 0.022411128792962563 0.031184617557228188
428 0.15557170745246568 0.21647478109864365
429 0.11139998317796573 0.15501074949769417
430 0.022411128792962563 0.031184617557228188
431 0.044751428347508906 0.062270677708791168
432 0.022411128792962563 0.031184617557228188
433 0.022411128792962563 0.031184617557228188
434 0.044751428347508906 0.062270677708791168
435 0.022411128792962563 0.031184617557228188
436 0.022411128792962563 0.031184617557228188
437 0.022411128792962563 0.031184617557228188
438 0.044751428347508906 0.062270677708791168
439 0.022411128792962563 0.031184617557228188
440 0.044751428347508906 0.062270677708791168
441 0.022411128792962563 0.031184617557228188
442 0.022411128792962563 0.031184617557228188
443 0.022411128792962563 0.031184617557228188
444 0.067026237864023827 0.09326560984048711
445 0.044751428347508906 0.062270677708791168
446 0.022411128792962563 0.031184617557228188
447 0.15557170745246568 0.21647478109864365
448 0.022411128792962563 0.031184617557228188
449 0.044751428347508906 0.062270677708791168
450 0.022411128792962563 0.031184617557228188
451 0.022411128792962563 0.031184617557228188
452 0.022411128792962563 0.031184617557228188
453 0.022411128792962563 0.031184617557228188
454 0.044751428347508906 0.062270677708791168
455 0.044751428347508906 0.062270677708791168
456 0.022411128792962563 0.031184617557228188
457 0.022411128792962563 0.031184617557228188
458 0.067026237864023827 0.09326560984048711
459 0.022411128792962563 0.031184617557228188
460 0.022411128792962563 0.031184617557228188
461 0.022411128792962563 0.031184617557228188
462 0.022411128792962563 0.031184617557228188
463 0.022411128792962563 0.031184617557228188
464 0.022411128792962563 0.031184617557228188
465 0.022411128792962563 0.031184617557228188
466 0.022411128792962563 0.031184617557228188
467 0.022411128792962563 0.031184617557228188
468 0.022411128792962563 0.031184617557228188
469 0.089240749849722231 0.12417663921764169
470 0.022411128792962563 0.031184617557228188
471 0.022411128792962563 0.031184617557228188
472 0.022411128792962563 0.031184617557228188
473 0.022411128792962563 0.031184617557228188
474 0.022411128792962563 0.031184617557228188
475 0.022411128792962563 0.031184617557228188
476 0.044751428347508906 0.062270677708791168
477 0.022411128792962563 0.031184617557228188
478 0.044751428347508906 0.062270677708791168
479 0.022411128792962563 0.031184617557228188
480 0.044751428347508906 0.062270677708791168
481 0.044751428347508906 0.062270677708791168
482 0.022411128792962563 0.031184617557228188
483 0.022411128792962563 0.031184617557228188
484 0.022411128792962563 0.031184617557228188
485 0.022411128792962563 0.031184617557228188
486 0.022411128792962563 0.031184617557228188
487 0.022411128792962563 0.031184617557228188
488 0.022411128792962563 0.031184617557228188
489 0.044751428347508906 0.062270677708791168
490 0.022411128792962563 0.031184617557228188
491 0.022411128792962563 0.031184617557228188
492 0.022411128792962563 0.031184617557228188
493 0.022411128792962563 0.031184617557228188
494 0.044751428347508906 0.062270677708791168
495 0.022411128792962563 0.031184617557228188
496 0.022411128792962563 0.031184617557228188
497 0.067026237864023827 0.09326560984048711
498 0.022411128792962563 0.031184617557228188
499 0.044751428347508906 0.062270677708791168
500 0.022411128792962563 0.031184617557228188
501 0.022411128792962563 0.031184617557228188
502 0.044751428347508906 0.062270677708791168
503 0.022411128792962563 0.031184617557228188
504 0.044751428347508906 0.062270677708791168
505 0.022411128792962563 0.031184617557228188
506 0.022411128792962563 0.031184617557228188
507 0.022411128792962563 0.031184617557228188
508 0.067026237864023827 0.09326560984048711
509 0.022411128792962563 0.031184617557228188
510 0.022411128792962563 0.031184617557228188
511 0.022411128792962563 0.031184617557228188
512 0.022411128792962563 0.031184617557228188
513 0.067026237864023827 0.09326560984048711
514 0.022411128792962563 0.031184617557228188
515 0.022411128792962563 0.031184617557228188
516 0.33090757974760659 0.46045098471155088
517 0.044751428347508906 0.062270677708791168
518 0.19957747608084703 0.27770788888475956
519 0.044751428347508906 0.062270677708791168
520 0.022411128792962563 0.031184617557228188
521 0.022411128792962563 0.031184617557228188
522 0.022411128792962563 0.031184617557228188
523 0.022411128792962563 0.031184617557228188
524 0.022411128792962563 0.031184617557228188
525 0.022411128792962563 0.031184617557228188
526 0.022411128792962563 0.031184617557228188
527 0.022411128792962563 0.031184617557228188
528 0.022411128792962563 0.031184617557228188
529 0.022411128792962563 0.031184617557228188
530 0.022411128792962563 0.031184617557228188
531 0.022411128792962563 0.031184617557228188
532 0.022411128792962563 0.031184617557228188
533 0.022411128792962563 0.031184617557228188
534 0.022411128792962563 0.031184617557228188
535 0.022411128792962563 0.031184617557228188
536 0.022411128792962563 0.031184617557228188
537 0.022411128792962563 0.031184617557228188
538 0.044751428347508906 0.062270677708791168
539 0.067026237864023827 0.09326560984048711
540 0.022411128792962563 0.031184617557228188
541 0.022411128792962563 0.031184617557228188
542 0.022411128792962563 0.031184617557228188
543 0.022411128792962563 0.031184617557228188
544 0.022411128792962563 0.031184617557228188
545 0.067026237864023827 0.09326560984048711
546 0.022411128792962563 0.031184617557228188
547 0.022411128792962563 0.031184617557228188
548 0.067026237864023827 0.09326560984048711
549 0.022411128792962563 0.031184617557228188
550 0.022411128792962563 0.031184617557228188
551 0.022411128792962563 0.031184617557228188
552 0.022411128792962563 0.031184617557228188
553 0.17759321793123245 0.24711725291061684
554 0.022411128792962563 0.031184617557228188
555 0.022411128792962563 0.031184617557228188
556 0.022411128792962563 0.031184617557228188
557 0.11139998317796573 0.15501074949769417
558 0.022411128792962563 0.031184617557228188
559 0.022411128792962563 0.031184617557228188
560 0.044751428347508906 0.062270677708791168
561 0.13350876311337298 0.18577465493556455
562 0.022411128792962563 0.031184617557228188
563 0.022411128792962563 0.031184617557228188
564 0.022411128792962563 0.031184617557228188
565 0.022411128792962563 0.031184617557228188
566 0.044751428347508906 0.062270677708791168
567 0.044751428347508906 0.062270677708791168
568 0.022411128792962563 0.031184617557228188
569 0.022411128792962563 0.031184617557228188
570 0.022411128792962563 0.031184617557228188
571 0.022411128792962563 0.031184617557228188
572 0.022411128792962563 0.031184617557228188
573 0.022411128792962563 0.031184617557228188
574 0.044751428347508906 0.062270677708791168
575 0.022411128792962563 0.031184617557228188
576 0.022411128792962563 0.031184617557228188
577 0.044751428347508906 0.062270677708791168
578 0.044751428347508906 0.062270677708791168
579 0.022411128792962563 0.031184617557228188
580 0.022411128792962563 0.031184617557228188
581 0.044751428347508906 0.062270677708791168
582 0.067026237864023827 0.09326560984048711
583 0.022411128792962563 0.031184617557228188
584 0.022411128792962563 0.031184617557228188
585 0.089240749849722231 0.12417663921764169
586 0.022411128792962563 0.031184617557228188
587 0.022411128792962563 0.031184617557228188
588 0.022411128792962563 0.031184617557228188
589 0.022411128792962563 0.031184617557228188
590 0.022411128792962563 0.031184617557228188
591 0.044751428347508906 0.062270677708791168
592 0.022411128792962563 0.031184617557228188
593 0.022411128792962563 0.031184617557228188
594 0.022411128792962563 0.031184617557228188
595 0.022411128792962563 0.031184617557228188
596 0.022411128792962563 0.031184617557228188
597 0.022411128792962563 0.031184617557228188
598 0.022411128792962563 0.031184617557228188
599 0.022411128792962563 0.031184617557228188
600 0.022411128792962563 0.031184617557228188
601 0.067026237864023827 0.09326560984048711
602 0.022411128792962563 0.031184617557228188
603 0.13350876311337298 0.18577465493556455
604 0.022411128792962563 0.031184617557228188
605 0.022411128792962563 0.031184617557228188
606 0.022411128792962563 0.031184617557228188
607 0.022411128792962563 0.031184617557228188
608 0.022411128792962563 0.031184617557228188
609 0.022411128792962563 0.031184617557228188
610 0.044751428347508906 0.062270677708791168
611 0.022411128792962563 0.031184617557228188
612 0.044751428347508906 0.062270677708791168
613 0.022411128792962563 0.031184617557228188
614 0.067026237864023827 0.09326560984048711
615 0.044751428347508906 0.062270677708791168
616 0.022411128792962563 0.031184617557228188
617 0.044751428347508906 0.062270677708791168
618 0.022411128792962563 0.031184617557228188
619 0.044751428347508906 0.062270677708791168
620 0.022411128792962563 0.031184617557228188
621 0.022411128792962563 0.031184617557228188
622 0.022411128792962563 0.031184617557228188
623 0.022411128792962563 0.031184617557228188
624 0.17759321793123245 0.24711725291061684
625 0.022411128792962563 0.031184617557228188
626 0.022411128792962563 0.031184617557228188
627 0.022411128792962563 0.031184617557228188
628 0.044751428347508906 0.062270677708791168
629 0.022411128792962563 0.031184617557228188
630 0.044751428347508906 0.062270677708791168
631 0.022411128792962563 0.031184617557228188
632 0.022411128792962563 0.031184617557228188
633 0.022411128792962563 0.031184617557228188
634 0.022411128792962563 0.031184617557228188
635 0.022411128792962563 0.031184617557228188
636 0.022411128792962563 0.031184617557228188
637 0.022411128792962563 0.031184617557228188
638 0.022411128792962563 0.031184617557228188
639 0.022411128792962563 0.031184617557228188
640 0.022411128792962563 0.031184617557228188
641 0.022411128792962563 0.031184617557228188
642 0.022411128792962563 0.031184617557228188
643 0.022411128792962563 0.031184617557228188
644 0.022411128792962563 0.031184617557228188
645 0.022411128792962563 0.031184617557228188
646 0.044751428347508906 0.062270677708791168
647 0.022411128792962563 0.031184617557228188
648 0.022411128792962563 0.031184617557228188
649 0.044751428347508906 0.062270677708791168
650 0.022411128792962563 0.031184617557228188
651 0.044751428347508906 0.062270677708791168
652 0.022411128792962563 0.031184617557228188
653 0.022411128792962563 0.031184617557228188
654 0.022411128792962563 0.031184617557228188
655 0.022411128792962563 0.031184617557228188
656 0.044751428347508906 0.062270677708791168
657 0.022411128792962563 0.031184617557228188
658 0.022411128792962563 0.031184617557228188
659 0.022411128792962563 0.031184617557228188
660 0.044751428347508906 0.062270677708791168
661 0.022411128792962563 0.031184617557228188
662 0.044751428347508906 0.062270677708791168
663 0.24344986067447907 0.33875539557285533
664 0.022411128792962563 0.031184617557228188
665 0.022411128792962563 0.031184617557228188
666 0.19957747608084703 0.27770788888475956
667 0.022411128792962563 0.031184617557228188
668 0.044751428347508906 0.062270677708791168
669 0.022411128792962563 0.031184617557228188
670 0.067026237864023827 0.09326560984048711
671 0.067026237864023827 0.09326560984048711
672 0.044751428347508906 0.062270677708791168
673 0.022411128792962563 0.031184617557228188
674 0.022411128792962563 0.031184617557228188
675 0.022411128792962563 0.031184617557228188
676 0.022411128792962563 0.031184617557228188
677 0.022411128792962563 0.031184617557228188
678 0.044751428347508906 0.062270677708791168
679 0.022411128792962563 0.031184617557228188
680 0.022411128792962563 0.031184617557228188
681 0.022411128792962563 0.031184617557228188
682 0.022411128792962563 0.031184617557228188
683 0.022411128792962563 0.031184617557228188
684 0.067026237864023827 0.09326560984048711
685 0.044751428347508906 0.062270677708791168
686 0.044751428347508906 0.062270677708791168
687 0.17759321793123245 0.24711725291061684
688 0.022411128792962563 0.031184617557228188
689 0.044751428347508906 0.062270677708791168
690 0.022411128792962563 0.031184617557228188
691 0.022411128792962563 0.031184617557228188
692 0.022411128792962563 0.031184617557228188
693 0.022411128792962563 0.031184617557228188
694 0.022411128792962563 0.031184617557228188
695 0.022411128792962563 0.031184617557228188
696 0.022411128792962563 0.031184617557228188
697 0.022411128792962563 0.031184617557228188
698 0.022411128792962563 0.031184617557228188
699 0.022411128792962563 0.031184617557228188
700 0.022411128792962563 0.031184617557228188
701 0.022411128792962563 0.031184617557228188
702 0.067026237864023827 0.09326560984048711
703 0.022411128792962563 0.031184617557228188
704 0.044751428347508906 0.062270677708791168
705 0.022411128792962563 0.031184617557228188
706 0.022411128792962563 0.031184617557228188
707 0.044751428347508906 0.062270677708791168
708 0.022411128792962563 0.031184617557228188
709 0.022411128792962563 0.031184617557228188
710 0.022411128792962563 0.031184617557228188
711 0.022411128792962563 0.031184617557228188
712 0.11139998317796573 0.15501074949769417
713 0.022411128792962563 0.031184617557228188
714 0.022411128792962563 0.031184617557228188
715 0.044751428347508906 0.062270677708791168
716 0.022411128792962563 0.031184617557228188
717 0.022411128792962563 0.031184617557228188
718 0.044751428347508906 0.062270677708791168
719 0.089240749849722231 0.12417663921764169
720 0.022411128792962563 0.031184617557228188
721 0.022411128792962563 0.031184617557228188
722 0.022411128792962563 0.031184617557228188
723 0.022411128792962563 0.031184617557228188
724 0.044751428347508906 0.062270677708791168
725 0.044751428347508906 0.062270677708791168
726 0.022411128792962563 0.031184617557228188
727 0.022411128792962563 0.031184617557228188
728 0.044751428347508906 0.062270677708791168
729 0.022411128792962563 0.031184617557228188
730 0.022411128792962563 0.031184617557228188
731 0.022411128792962563 0.031184617557228188
732 0.022411128792962563 0.031184617557228188
733 0.022411128792962563 0.031184617557228188
734 0.11139998317796573 0.15501074949769417
735 0.044751428347508906 0.062270677708791168
736 0.022411128792962563 0.031184617557228188
737 0.022411128792962563 0.031184617557228188
738 0.022411128792962563 0.031184617557228188
739 0.067026237864023827 0.09326560984048711
740 0.022411128792962563 0.031184617557228188
741 0.022411128792962563 0.031184617557228188
742 0.022411128792962563 0.031184617557228188
743 0.022411128792962563 0.031184617557228188
744 0.022411128792962563 0.031184617557228188
745 0.044751428347508906 0.062270677708791168
746 0.022411128792962563 0.031184617557228188
747 0.044751428347508906 0.062270677708791168
748 0.022411128792962563 0.031184617557228188
749 0.022411128792962563 0.031184617557228188
750 0.022411128792962563 0.031184617557228188
751 0.28721796099215385 0.39965779286940079
752 0.022411128792962563 0.031184617557228188
753 0.022411128792962563 0.031184617557228188
754 0.067026237864023827 0.09326560984048711
755 0.022411128792962563 0.031184617557228188
756 0.022411128792962563 0.031184617557228188
757 0.022411128792962563 0.031184617557228188
758 0.044751428347508906 0.062270677708791168
759 0.022411128792962563 0.031184617557228188
760 0.022411128792962563 0.031184617557228188
761 0.022411128792962563 0.031184617557228188
762 0.022411128792962563 0.031184617557228188
763 0.022411128792962563 0.031184617557228188
764 0.022411128792962563 0.031184617557228188
765 0.022411128792962563 0.031184617557228188
766 0.044751428347508906 0.062270677708791168
767 0.022411128792962563 0.031184617557228188
768 0.022411128792962563 0.031184617557228188
769 0.17759321793123245 0.24711725291061684
770 0.022411128792962563 0.031184617557228188
771 0.022411128792962563 0.031184617557228188
772 0.022411128792962563 0.031184617557228188
773 0.022411128792962563 0.031184617557228188
774 0.022411128792962563 0.031184617557228188
775 0.11139998317796573 0.15501074949769417
776 0.022411128792962563 0.031184617557228188
777 0.022411128792962563 0.031184617557228188
778 0.022411128792962563 0.031184617557228188
779 0.022411128792962563 0.031184617557228188
780 0.044751428347508906 0.062270677708791168
781 0.022411128792962563 0.031184617557228188
782 0.044751428347508906 0.062270677708791168
783 0.15557170745246568 0.21647478109864365
784 0.022411128792962563 0.031184617557228188
785 0.022411128792962563 0.031184617557228188
786 0.022411128792962563 0.031184617557228188
787 0.022411128792962563 0.031184617557228188
788 0.044751428347508906 0.062270677708791168
789 0.022411128792962563 0.031184617557228188
790 0.022411128792962563 0.031184617557228188
791 0.022411128792962563 0.031184617557228188
792 0.13350876311337298 0.18577465493556455
793 0.022411128792962563 0.031184617557228188
794 0.044751428347508906 0.062270677708791168
795 0.022411128792962563 0.031184617557228188
796 0.022411128792962563 0.031184617557228188
797 0.13350876311337298 0.18577465493556455
798 0.022411128792962563 0.031184617557228188
799 0.089240749849722231 0.12417663921764169
800 0.044751428347508906 0.062270677708791168
801 0.022411128792962563 0.031184617557228188
802 0.022411128792962563 0.031184617557228188
803 0.022411128792962563 0.031184617557228188
804 0.022411128792962563 0.031184617557228188
805 0.022411128792962563 0.031184617557228188
806 0.022411128792962563 0.031184617557228188
807 0.022411128792962563 0.031184617557228188
808 0.022411128792962563 0.031184617557228188
809 0.022411128792962563 0.031184617557228188
810 0.022411128792962563 0.031184617557228188
811 0.044751428347508906 0.062270677708791168
812 0.044751428347508906 0.062270677708791168
813 0.022411128792962563 0.031184617557228188
814 0.022411128792962563 0.031184617557228188
815 0.044751428347508906 0.062270677708791168
816 0.067026237864023827 0.09326560984048711
817 0.022411128792962563 0.031184617557228188
818 0.022411128792962563 0.031184617557228188
819 0.022411128792962563 0.031184617557228188
820 0.022411128792962563 0.031184617557228188
821 0.26534525919456403 0.36922238522873135
822 0.022411128792962563 0.031184617557228188
823 0.11139998317796573 0.15501074949769417
824 0.067026237864023827 0.09326560984048711
825 0.022411128792962563 0.031184617557228188
826 0.022411128792962563 0.031184617557228188
827 0.11139998317796573 0.15501074949769417
828 0.089240749849722231 0.12417663921764169
829 0.022411128792962563 0.031184617557228188
830 0.022411128792962563 0.031184617557228188
831 0.022411128792962563 0.031184617557228188
832 0.022411128792962563 0.031184617557228188
833 0.022411128792962563 0.031184617557228188
834 0.022411128792962563 0.031184617557228188
835 0.022411128792962563 0.031184617557228188
836 0.044751428347508906 0.062270677708791168
837 0.022411128792962563 0.031184617557228188
838 0.022411128792962563 0.031184617557228188
839 0.044751428347508906 0.062270677708791168
840 0.022411128792962563 0.031184617557228188
841 0.089240749849722231 0.12417663921764169
842 0.022411128792962563 0.031184617557228188
843 0.022411128792962563 0.031184617557228188
844 0.044751428347508906 0.062270677708791168
845 0.022411128792962563 0.031184617557228188
846 0.022411128792962563 0.031184617557228188
847 0.022411128792962563 0.031184617557228188
848 0.022411128792962563 0.031184617557228188
849 0.089240749849722231 0.12417663921764169
850 0.022411128792962563 0.031184617557228188
851 0.022411128792962563 0.031184617557228188
852 0.17759321793123245 0.24711725291061684
853 0.044751428347508906 0.062270677708791168
854 0.022411128792962563 0.031184617557228188
855 0.022411128792962563 0.031184617557228188
856 0.022411128792962563 0.031184617557228188
857 0.022411128792962563 0.031184617557228188
858 0.022411128792962563 0.031184617557228188
859 0.022411128792962563 0.031184617557228188
860 0.022411128792962563 0.031184617557228188
861 0.022411128792962563 0.031184617557228188
862 0.022411128792962563 0.031184617557228188
863 1.1199846230547965 1.5584352070167939
864 0.022411128792962563 0.031184617557228188
865 0.022411128792962563 0.031184617557228188
866 0.022411128792962563 0.031184617557228188
867 2.7593107514308466 3.8395232698828226
868 0.022411128792962563 0.031184617557228188
869 0.022411128792962563 0.031184617557228188
870 0.022411128792962563 0.031184617557228188
871 0.022411128792962563 0.031184617557228188
872 0.022411128792962563 0.031184617557228188
873 0.022411128792962563 0.031184617557228188
874 0.067026237864023827 0.09326560984048711
875 0.022411128792962563 0.031184617557228188
876 0.022411128792962563 0.031184617557228188
877 0.022411128792962563 0.031184617557228188
878 0.022411128792962563 0.031184617557228188
879 0.022411128792962563 0.031184617557228188
880 0.044751428347508906 0.062270677708791168
881 0.022411128792962563 0.031184617557228188
882 0.022411128792962563 0.031184617557228188
883 0.022411128792962563 0.031184617557228188
884 0.022411128792962563 0.031184617557228188
885 0.044751428347508906 0.062270677708791168
886 0.044751428347508906 0.062270677708791168
887 0.022411128792962563 0.031184617557228188
888 0.022411128792962563 0.031184617557228188
889 0.022411128792962563 0.031184617557228188
890 0.022411128792962563 0.031184617557228188
891 0.022411128792962563 0.031184617557228188
892 0.022411128792962563 0.031184617557228188
893 0.022411128792962563 0.031184617557228188
894 0.022411128792962563 0.031184617557228188
895 0.35273018342161838 0.49081668185978344
896 0.044751428347508906 0.062270677708791168
897 0.022411128792962563 0.031184617557228188
898 0.022411128792962563 0.031184617557228188
899 0.022411128792962563 0.031184617557228188
900 0.022411128792962563 0.031184617557228188
901 0.022411128792962563 0.031184617557228188
902 0.022411128792962563 0.031184617557228188
903 0.022411128792962563 0.031184617557228188
904 0.022411128792962563 0.031184617557228188
905 0.022411128792962563 0.031184617557228188
906 0.022411128792962563 0.031184617557228188
907 0.022411128792962563 0.031184617557228188
908 0.022411128792962563 0.031184617557228188
909 0.022411128792962563 0.031184617557228188
910 0.022411128792962563 0.031184617557228188
911 0.022411128792962563 0.031184617557228188
912 0.022411128792962563 0.031184617557228188
913 0.022411128792962563 0.031184617557228188
914 0.022411128792962563 0.031184617557228188
915 0.044751428347508906 0.062270677708791168
916 0.022411128792962563 0.031184617557228188
917 0.022411128792962563 0.031184617557228188
918 0.022411128792962563 0.031184617557228188
919 0.022411128792962563 0.031184617557228188
920 0.022411128792962563 0.031184617557228188
921 0.044751428347508906 0.062270677708791168
922 0.022411128792962563 0.031184617557228188
923 0.022411128792962563 0.031184617557228188
924 0.022411128792962563 0.031184617557228188
925 0.022411128792962563 0.031184617557228188
926 0.022411128792962563 0.031184617557228188
927 0.022411128792962563 0.031184617557228188
928 0.022411128792962563 0.031184617557228188
929 0.022411128792962563 0.031184617557228188
930 0.022411128792962563 0.031184617557228188
931 0.022411128792962563 0.031184617557228188
932 0.022411128792962563 0.031184617557228188
933 0.022411128792962563 0.031184617557228188
934 0.044751428347508906 0.062270677708791168
935 0.022411128792962563 0.031184617557228188
936 0.022411128792962563 0.031184617557228188
937 0.022411128792962563 0.031184617557228188
938 0.022411128792962563 0.031184617557228188
939 0.022411128792962563 0.031184617557228188
940 0.044751428347508906 0.062270677708791168
941 0.022411128792962563 0.031184617557228188
942 0.022411128792962563 0.031184617557228188
943 0.022411128792962563 0.031184617557228188
944 0.022411128792962563 0.031184617557228188
945 0.022411128792962563 0.031184617557228188
946 0.044751428347508906 0.062270677708791168
947 0.022411128792962563 0.031184617557228188
948 0.022411128792962563 0.031184617557228188
949 0.022411128792962563 0.031184617557228188
950 0.022411128792962563 0.031184617557228188
951 0.089240749849722231 0.12417663921764169
952 0.022411128792962563 0.031184617557228188
953 0.044751428347508906 0.062270677708791168
954 0.022411128792962563 0.031184617557228188
955 0.022411128792962563 0.031184617557228188
956 0.022411128792962563 0.031184617557228188
957 0.022411128792962563 0.031184617557228188
958 0.022411128792962563 0.031184617557228188
959 0.089240749849722231 0.12417663921764169
960 0.022411128792962563 0.031184617557228188
961 0.022411128792962563 0.031184617557228188
962 0.022411128792962563 0.031184617557228188
963 0.022411128792962563 0.031184617557228188
964 0.022411128792962563 0.031184617557228188
965 0.022411128792962563 0.031184617557228188
966 0.022411128792962563 0.031184617557228188
967 0.022411128792962563 0.031184617557228188
968 0.022411128792962563 0.031184617557228188
969 0.022411128792962563 0.031184617557228188
970 0.044751428347508906 0.062270677708791168
971 0.022411128792962563 0.031184617557228188
972 0.022411128792962563 0.031184617557228188
973 0.022411128792962563 0.031184617557228188
974 0.022411128792962563 0.031184617557228188
975 0.022411128792962563 0.031184617557228188
976 0.044751428347508906 0.062270677708791168
977 0.022411128792962563 0.031184617557228188
978 0.022411128792962563 0.031184617557228188
979 0.044751428347508906 0.062270677708791168
980 0.022411128792962563 0.031184617557228188
981 0.044751428347508906 0.062270677708791168
982 0.022411128792962563 0.031184617557228188
983 0.022411128792962563 0.031184617557228188
984 0.044751428347508906 0.062270677708791168
985 0.022411128792962563 0.031184617557228188
986 0.022411128792962563 0.031184617557228188
987 0.044751428347508906 0.062270677708791168
988 0.022411128792962563 0.031184617557228188
989 0.022411128792962563 0.031184617557228188
990 0.022411128792962563 0.031184617557228188
991 0.022411128792962563 0.031184617557228188
992 0.089240749849722231 0.12417663921764169
993 0.067026237864023827 0.09326560984048711
994 0.022411128792962563 0.031184617557228188
995 0.022411128792962563 0.031184617557228188
996 0.022411128792962563 0.031184617557228188
997 0.044751428347508906 0.062270677708791168
998 0.022411128792962563 0.031184617557228188
999 0.044751428347508906 0.062270677708791168
