# #Gamma: 1.4360545457161912e-05 Node_id x y
0 0.024063255561224274 0.023114221190634703
1 0.025371199489359383 0.023115843407858841
2 0.25486175274326511 0.23119289020474368
3 0.072320463152428793 0.069403033142021217
4 0.049428702029058767 0.046297704835410999
5 0.024094151654078421 0.023137262284380591
6 0.026138563036089427 0.023162058731341601
7 0.025162675263369114 0.023158623910943709
8 0.024006374523343726 0.02314656161838155
9 0.024610078453065218 0.023151109589712407
10 0.024459538387934819 0.02314947018159717
11 0.024222820860616886 0.023153094131793995
12 0.02456938680546469 0.023155950015710906
13 0.048590744909051437 0.046297726405005658
14 0.025997817613623134 0.023176104257774843
15 0.02402451443420589 0.02315671832721132
16 0.09641168869238749 0.092611560616364511
17 0.051034419435011052 0.046371166125485037
18 0.024220859703525867 0.023170011747659845
19 0.025231900293882923 0.02318519031406736
20 0.024792064570393398 0.023183656340513201
21 0.072858559681739266 0.069491984257478198
22 0.023972765164249652 0.023168344650398295
23 0.048375822042110023 0.046337258193341772
24 0.024062255414780277 0.023171830983145025
25 0.026019506432017923 0.02320169150029289
26 0.024333877745770838 0.023175011583596458
27 0.048491342137683399 0.046375808951327299
28 0.023956152835783746 0.023178960593758437
29 0.02429350939769815 0.023190876882307473
30 0.19483988758812426 0.18544916045611717
31 0.025025696935620872 0.023197857879641959
32 0.048241074854988408 0.04640368514956867
33 0.026308841223747687 0.023243152884296098
34 0.024698549028413005 0.023227374930976447
35 0.025334376169795558 0.023248266554730456
36 0.050522889449088004 0.046449864369877955
37 0.024595308861253572 0.023215850268824813
38 0.02396087229123358 0.023191570231567978
39 0.024145519237507775 0.023208444265440074
40 0.049649782210310474 0.046493277642910176
41 0.024581931397215918 0.02321466975031616
42 0.023994915613352014 0.023198445621487505
43 0.048581442826869922 0.046404696705657646
44 0.025215306007458693 0.023260457392863424
45 0.02504916518303632 0.023263515681613414
46 0.024347967285747174 0.023230457515124737
47 0.025261471912714786 0.023280885023433517
48 0.024262523502206007 0.023229693240647515
49 0.024175179803886813 0.023214824361006831
50 0.024567250647227919 0.023253045298033886
51 0.025373082119607059 0.0232892419381866
52 0.026661859045283745 0.023305265021770983
53 0.073874188329679721 0.069771790304309203
54 0.1554865039523341 0.13976166810314045
55 0.026420682064824643 0.02335359215499103
56 0.02502159262891188 0.02329774493319053
57 0.024369200401452545 0.023280912373969294
58 0.024054703477236414 0.023247157516959868
59 0.024594213681157346 0.023287871412880551
60 0.023828353943251161 0.023241961696844386
61 0.02401324607298639 0.023259008561800437
62 0.17003019430058683 0.16274111558317089
63 0.024629362287783053 0.023313673984191593
64 0.026401648576315273 0.023407320224579128
65 0.024166086039725598 0.023280001475941666
66 0.024846241935774338 0.023311627913227603
67 0.025827833876220709 0.023387333496346543
68 0.024064892621216472 0.023254336623530384
69 0.027204681805013311 0.023441157998090746
70 0.023857121244525829 0.023257649450696076
71 0.048813030831239237 0.046579671141769183
72 0.024128818059243762 0.023304066836551937
73 0.024179795431193293 0.023271519868202011
74 0.024481300028651565 0.023301460622598996
75 0.024095522226562527 0.023288361765604809
76 0.023804933070615045 0.023275681020195466
77 0.023791485281660203 0.023279542337056036
78 0.024650784788438497 0.023335756646095739
79 0.024015415156662261 0.023297798129483582
80 0.024304724707468812 0.023326684646900568
81 0.024002442961896558 0.023296821035887576
82 0.047955758851176283 0.046537322937342633
83 0.50796322180050868 0.48918714724211199
84 0.02426826693676034 0.023363797782963661
85 0.023778141824223817 0.023308699336052428
86 0.024133499948340957 0.023294679997185409
87 0.024372519202845569 0.023363450662669618
88 0.023810731972909605 0.023287268597238373
89 0.023713384048722721 0.023297069310990806
90 0.024371320578864573 0.023324467454661862
91 0.024291390626600729 0.023373583338345088
92 0.024206290603991827 0.023323124741951987
93 0.096039772720837469 0.093408746845545648
94 0.02441261177339769 0.02339323705657715
95 0.025183930837012494 0.023462183556562689
96 0.024036546851637336 0.023357126322759676
97 0.024236757083323464 0.023323644275647287
98 0.050452501928936341 0.046957525142262181
99 0.024440665714242752 0.023404035142835788
100 0.023856722730506909 0.023341767487491543
101 0.023747255439510544 0.023327010408948339
102 0.024415075767356048 0.023363282763225874
103 0.025402052023150899 0.023472090792629751
104 0.074752349135548707 0.070362461597752946
105 0.024594587500043858 0.023403918529803502
106 0.025240778273978342 0.023499967820263232
107 0.02376095631155872 0.02332241514435935
108 0.023867632092245166 0.023326664508104188
109 0.04740747625045913 0.046648868289562349
110 0.02405772004905608 0.023386899974438571
111 0.023817290695016487 0.023340111141897643
112 0.096612242854910504 0.093603690877418141
113 0.023820840323752854 0.023354411011685266
114 0.0240397662807879 0.023387589886381132
115 0.14620180061096313 0.14028099920521792
116 0.023939713773455194 0.023387728405648563
117 0.024615006894723176 0.023460558117801761
118 0.024627422060404032 0.023428916810535431
119 0.026853933568875589 0.023682030886460308
120 0.024446971729767588 0.023425005040048276
121 0.024279622349710924 0.023440687221975755
122 0.024061531169536274 0.023418025016371635
123 0.024285357299539945 0.023428930116039429
124 0.049801986187822181 0.047010534544380742
125 0.023839258602832994 0.023363384355682505
126 0.024708296943214293 0.023459752690003378
127 0.02378810265332959 0.023373527717043967
128 0.023690044217541815 0.023363181451797947
129 0.023941786558557707 0.02340943835088341
130 0.023818772415714281 0.02337644907304344
131 0.02420487520458196 0.023443053578864361
132 0.02457328176423312 0.023480929903061987
133 0.024256218000847492 0.023416975452238118
134 0.024439866581548769 0.023486049563612971
135 0.0255742829788978 0.023607987817964714
136 0.026277243236360923 0.023636593773695487
137 0.053221345101785521 0.047414207697285549
138 0.023955949612882225 0.023387056587875411
139 0.023944466095893395 0.023386309694991881
140 0.21974445574765478 0.21143642402763943
141 0.02436676583005247 0.023444574879704017
142 0.048824935721504766 0.047041134649757253
143 0.023765614425240424 0.023425551936582471
144 0.024806355568124654 0.023579187200338199
145 0.023680773714111706 0.023399266400959691
146 0.023710299224510727 0.023393364804361438
147 0.026890551695070018 0.023783715323274866
148 0.048561469274178974 0.046947794373288783
149 0.024620421841394468 0.023562183098688919
150 0.024245281041840257 0.023501085011808705
151 0.023728838406107223 0.02343477105806294
152 0.023678363690784545 0.023420415910668096
153 0.025589467027175898 0.023710561668982413
154 0.024026095833791491 0.023485765895212736
155 0.024347460997994855 0.023536182211861177
156 0.14463390403115065 0.14082076026029475
157 0.04815599988925813 0.046923028577751671
158 0.096864581436955532 0.09414880407854985
159 0.023881595529496313 0.023463848031040922
160 0.02361638855063157 0.02343650531114282
161 0.024102751574350427 0.023527480469673373
162 0.048215197041808024 0.04701414634263739
163 0.073595613839545465 0.070699584995649448
164 0.027236215741072645 0.02399099631687282
165 0.024619543464149195 0.023610156121175608
166 0.023894470722492012 0.023458852249079142
167 0.02379853213980531 0.023454543990662022
168 0.023702128370009314 0.023470165974457537
169 0.024163862258103082 0.023536587910422842
170 0.023682500045249109 0.023449958891376001
171 0.047301460650472228 0.046926991866723444
172 0.024059021734664749 0.023510598000879023
173 0.024366362102992499 0.023582071322371622
174 0.024473396542958901 0.023619597039208681
175 0.023963727645877075 0.023486364785849607
176 0.048132799584077568 0.04706901687755604
177 0.02454116704665826 0.023636630261328347
178 0.02463866112827609 0.02365455651459401
179 0.02404343644252958 0.023508321638780482
180 0.072482969702036645 0.070729784361313733
181 0.023767696733250694 0.023500668094424866
182 0.024188307426397875 0.023580726336405108
183 0.023601706419116367 0.023471759062568112
184 0.049424091607016489 0.047358791260613799
185 0.023630880384503838 0.023469916903137409
186 0.16961794084806359 0.16517377389877655
187 0.024795483029573635 0.023681290661431965
188 0.023619533485093054 0.023480365796608796
189 0.024551390889839621 0.023649708521919683
190 0.024505733385547832 0.023661159015063511
191 0.023547612632841372 0.023480559649104477
192 0.026129112797066655 0.023958854273702229
193 0.025108358011555056 0.023771004908549904
194 0.023842049971871688 0.02354092342079294
195 0.023855244839205824 0.023537443727688356
196 0.050099117061730404 0.047474510501555461
197 0.026341653031942591 0.024011993659061402
198 0.048084946094449389 0.047126959564001966
199 0.024990881676521703 0.023784808086776583
200 0.023847051987267925 0.023565382572711648
201 0.023535411383174623 0.023492490459285094
202 0.048862608449428781 0.047361255070159328
203 0.023907621769719067 0.02358346662237102
204 0.047891623289771423 0.047197722421135159
205 0.14300908513043034 0.1414108086596548
206 0.024736680515668588 0.023769638347060973
207 0.024847586448590614 0.023786183429391483
208 0.023623331146097361 0.02353585072017083
209 0.02405488079049169 0.023625057394436856
210 0.12579208515988538 0.11905861127907455
211 0.023710868849991844 0.023574273679510871
212 0.047638935784512136 0.047195887907372475
213 0.073183828154788064 0.07119365738645568
214 0.023698474443685249 0.023555658845970589
215 0.024287069612003477 0.023711421491604143
216 0.024435077442708009 0.023742496024501483
217 0.023677414105895977 0.02357464093174625
218 0.047671092434218534 0.0472493422075718
219 0.023916574755290861 0.023626642033158247
220 0.047414621209658822 0.047179663515098599
221 0.19049136574849362 0.18898953377354599
222 0.024398303009517602 0.023759958048705395
223 0.024141141632972346 0.023710029513935769
224 0.023843465279563009 0.023626038137623956
225 0.024367705486415189 0.023777475598698548
226 0.024460040576183565 0.023748149115673512
227 0.026034628696759095 0.024113963866524452
228 0.024110951349831235 0.023716303211056215
229 0.04813747782214179 0.047403450861967164
230 0.023536781274742933 0.023570859478120258
231 0.025596615351130409 0.024029662917573111
232 0.02427509350818742 0.023748340407696626
233 0.024201721848601726 0.023738995899668977
234 0.024472675565675655 0.023775696028625528
235 0.047602443995296895 0.047273318390263462
236 0.023523900431921031 0.023587271000041331
237 0.025486806085687465 0.024012201830129067
238 0.073068437218245921 0.071332763344689493
239 0.024493305971507829 0.023835871933051953
240 0.023833844787625371 0.02364877760522124
241 0.024821277476460579 0.023915571704449801
242 0.024108504922967601 0.023723392261208849
243 0.049066435975915007 0.047710889805364816
244 0.024124948807327171 0.023769333993995095
245 0.024010081922242972 0.023721669673714071
246 0.025737006476220285 0.02410330140048729
247 0.072912918768518242 0.071492070900207996
248 0.023477932548743211 0.023606244393627358
249 0.072885488724110103 0.071469776917407538
250 0.023956383193226086 0.023747787859033372
251 0.024247162493765091 0.023775861585791001
252 0.07105421500349339 0.071029870928116676
253 0.024000588383188585 0.023768010698019419
254 0.049266563798851803 0.047855547770075932
255 0.023521194672911316 0.023635896944693448
256 0.023543433052861513 0.023641867202824251
257 0.023736630816290859 0.023695900451203702
258 0.024445105525369881 0.023886877664678337
259 0.023624861199864667 0.023672323241710036
260 0.071546074424889097 0.071224231048497053
261 0.025275470728525609 0.024129158967046104
262 0.047794318923634879 0.047490427613069583
263 0.023954502499010294 0.02374631139926113
264 0.023602840547435687 0.023677427786735376
265 0.024597467895928791 0.023963064378709258
266 0.024157599244595953 0.023840765612219022
267 0.070960140690243645 0.071048610445477112
268 0.02354235507883682 0.023667836007557147
269 0.023542607501466535 0.023661740021753381
270 0.024802963097150584 0.024026264963851948
271 0.023555008061894759 0.023677817050274379
272 0.023488312194004612 0.023655221313152935
273 0.023659037316032864 0.023708670783771323
274 0.02628886614324517 0.024452405386920732
275 0.023651135289435282 0.023711249972286064
276 0.072274565927270842 0.071568459621271729
277 0.023808962890055532 0.023759607189303793
278 0.023839153511793568 0.023749129056293179
279 0.024837156096373485 0.024073181527209307
280 0.024410450165006287 0.023958118444571276
281 0.098726789214592089 0.096107590606455143
282 0.024684760474055878 0.024031483166697391
283 0.14396052756458486 0.14304753891108227
284 0.023871751795537344 0.023816036120253087
285 0.02390343657761607 0.023817036968574731
286 0.023656764992011428 0.023747741540909639
287 0.052519068201279863 0.049102752370702892
288 0.023370632987601513 0.023680427350996298
289 0.047101089160415451 0.047460010798941868
290 0.023573456585906566 0.023737775572853777
291 0.023524657814525927 0.023725598605230203
292 0.023886836804488217 0.023851582178195
293 0.048368525422049724 0.047820107057074367
294 0.024574105947496715 0.024058975287400086
295 0.070195948100706104 0.071086801708073202
296 0.025212535706267854 0.024243281435462678
297 0.071883928301438485 0.071705042387410253
298 0.023336722478144237 0.023691677044743779
299 0.07015112325646114 0.071115818073389472
300 0.024095680257564582 0.023954009116504374
301 0.046984414693917516 0.04747837937632101
302 0.023429717235872696 0.023719391446478409
303 0.024044465938413178 0.023948338428627633
304 0.16374593187357919 0.16601495172341804
305 0.023486760120966732 0.023762051216814534
306 0.047912864947980513 0.047872100570977377
307 0.046956110527886057 0.047513384002810417
308 0.023635587499170489 0.023820630638672517
309 0.024194609462867601 0.024015510160745279
310 0.024131394956076871 0.023985030202620404
311 0.024761162551825984 0.024218064921410563
312 0.024455931418011057 0.024111376491719665
313 0.023449054761517332 0.023758457478993494
314 0.023411879309823972 0.023746073475041533
315 0.024081646696839095 0.023985996724878847
316 0.024034431191741836 0.023981575511389498
317 0.023347446283674526 0.023726354942400548
318 0.023410976267007545 0.023757675606683064
319 0.023842823119561121 0.023889510238882139
320 0.28071502022834027 0.28491052730794464
321 0.047718758398843902 0.047810436202237912
322 0.023330219823018319 0.023745130404910591
323 0.023364761688276017 0.0237454663716564
324 0.024660588361261358 0.024257975944328165
325 0.96622454024251925 0.96352587897431841
326 0.14540125355580022 0.14499062969769783
327 0.024965913631824401 0.024444210601764844
328 0.023578870092020379 0.023980225554223061
329 0.023630209341475989 0.024032258548895537
330 0.023456535528877848 0.023924953643402552
331 0.073125768632786525 0.072642289291105125
332 0.024359903382534499 0.024251277850134322
333 0.023565868724184657 0.023920579828999259
334 0.024348870164163237 0.024225894859052965
335 0.023345525872386672 0.023920721141851502
336 0.02358014718195247 0.024015220263609603
337 0.02352294936849763 0.023964860111601993
338 0.12378801863951575 0.12203372175007147
339 0.023566136994504175 0.024021906677733362
340 0.023259019382054602 0.023848305057296265
341 0.023474813234049471 0.023929406696457631
342 0.023333594109933013 0.023888285807985105
343 0.02343158517677664 0.023943428407733149
344 0.023613549166997514 0.024043512502042452
345 0.023217543654024529 0.023876554900657217
346 0.023942357922025623 0.024264170808354468
347 0.16399077633120637 0.16723821604853387
348 0.023765759483274706 0.024009092525207703
349 0.023325942945933396 0.023871950461036292
350 0.023927052260238054 0.024223314733659872
351 0.046611675858788462 0.047781289614416335
352 0.024099677265299057 0.024329395520939403
353 0.023836790357874879 0.024238251618992408
354 0.025088163025944514 0.024631936153490103
355 0.046682459112708928 0.047799829614283737
356 0.0241217514246557 0.024277328970629446
357 0.023214172762275054 0.023891469850762913
358 0.024447019682089548 0.024524795191825436
359 0.092761773155406166 0.09546193157277448
360 0.093325949701513533 0.095795933302488284
361 0.023209146677944954 0.023927128164783155
362 0.04691983351482229 0.048129826173453773
363 0.04840057214685372 0.048664613699458008
364 0.023377693799737097 0.024059065506422891
365 0.023548217462634146 0.024150324917323163
366 0.024005098145517722 0.024237156871380117
367 0.024177060727543442 0.024342882149506372
368 0.02366335488532809 0.024201795570188672
369 0.023713599347413818 0.024070940479966142
370 0.13952091701713024 0.14331923023631435
371 0.02408210198382367 0.024389581219828507
372 0.023153932398719924 0.023915871196939817
373 0.023174235151405157 0.023887470811881639
374 0.023642228658882034 0.02411847086336236
375 0.050075444199893071 0.049486616477136279
376 0.18821382762796859 0.19317926478496444
377 0.14178720446794191 0.14451415873535373
378 0.095456732272583097 0.097550528637626172
379 0.023678051821835716 0.02427438712223386
380 0.023624622253104088 0.024232961814182441
381 0.11552957651244002 0.11961480173561476
382 0.023643001486117688 0.024239898486748988
383 0.023426538681075554 0.024099508848357151
384 0.04649764028354339 0.04810041664794705
385 0.023236910688693688 0.023996425859465834
386 0.024135989853897196 0.024556094363987882
387 0.023795785531205416 0.024233250434061746
388 0.023124852962948573 0.023916813853900393
389 0.047786588936784946 0.048910791573223131
390 0.072763106192186108 0.073568509119564751
391 0.023683890394506524 0.024371930113509029
392 0.023385034402455349 0.024024582509575714
393 0.024235646775256026 0.024479295700935468
394 0.024008998813847767 0.024554549045608155
395 0.071366892377340299 0.073417357795679428
396 0.024214602340944656 0.024729096010937264
397 0.02400194457607711 0.024509463623651626
398 0.023743698137161727 0.024258586823541706
399 0.024550363840173763 0.024682459802464501
400 0.023765471152015161 0.024334251590726805
401 0.024389553409488823 0.024610030559504562
402 0.023163623055975253 0.024057104036503227
403 0.023153089048387511 0.024046316838981511
404 0.023322536558666992 0.024133224041180592
405 0.024136535214093868 0.024660070603994364
406 0.023072785284019577 0.023971710743988239
407 0.023562490986229673 0.024153854535087813
408 0.04726961834919368 0.0484515638075095
409 0.023741396050267597 0.024410576135270489
410 0.069302409250386443 0.071888826350055363
411 0.023729885618399532 0.02427029148056958
412 0.025146226343814013 0.025159648048907763
413 0.16377844403865452 0.16862195546771755
414 0.023116708710602979 0.023997959120171532
415 0.86399043853298918 0.88863773024694293
416 0.024316368463695726 0.024923801605586875
417 0.02307097485930543 0.024073214600921333
418 0.069462086398809186 0.072307165143393401
419 0.023362271116676568 0.024218948303345346
420 0.023668021577542747 0.024601952606778815
421 0.024057232743221416 0.024898189161181097
422 0.023080899856099967 0.024172217475194744
423 0.023043869155746435 0.024138689462717113
424 0.023309816717028187 0.024314889494558737
425 0.21280930453682689 0.22022482061636428
426 0.023307640841006127 0.024360558533387196
427 0.023069373224763004 0.0241064651108506
428 0.16281142563209336 0.17049027142360285
429 0.11590545241388761 0.12147314301619511
430 0.023497905255956256 0.024428259698734661
431 0.046188441728605485 0.048302317534805309
432 0.023224322587047156 0.02434120850732354
433 0.023165963454957868 0.024300680441043217
434 0.047871791813017546 0.049812217318014052
435 0.023793431516688709 0.02480168646943319
436 0.023655922942933533 0.024562577214891922
437 0.023726890387712741 0.024754509099310134
438 0.04632278509417944 0.048619345957165508
439 0.023784977681609875 0.024733744699136688
440 0.04660300607187573 0.048778145842127682
441 0.025039793943537492 0.025644488242200843
442 0.023974691406315012 0.024888054542938045
443 0.0230252115429962 0.024217003225388098
444 0.072584226134490629 0.075003866785392642
445 0.046525201719582993 0.048685843336109709
446 0.023454185685697369 0.024580029505224633
447 0.16199396935128041 0.17045528614209021
448 0.023307586484390446 0.024366399410105467
449 0.04787927108990378 0.049739542894330122
450 0.023042665566746109 0.02424007942047043
451 0.023045845729728957 0.02422557831469872
452 0.022987353014152959 0.024162086449079252
453 0.023307365836466868 0.024521840768291451
454 0.046383883429874796 0.048690188562711324
455 0.046294450737263675 0.048570117327489344
456 0.023391602865814026 0.024457446096565142
457 0.023281130021335916 0.02437038085157826
458 0.069662380084466152 0.07320511085464064
459 0.023030856234791675 0.024234704329002633
460 0.0241860200846391 0.025128179171783019
461 0.023187000879552427 0.024345356580496184
462 0.022900065173065236 0.024145148251121473
463 0.024018985271775817 0.024983110762748083
464 0.02303309167105895 0.024240224495709298
465 0.02313742215209354 0.024319028857397642
466 0.023020125841905728 0.024206554796927394
467 0.02328109393871201 0.024541441967603495
468 0.023126800848083589 0.024403705393844403
469 0.092778807948328504 0.097862688403722212
470 0.023499791672825326 0.02467600379513336
471 0.023251422330888512 0.02439124209417385
472 0.024313893915953708 0.025495467139942541
473 0.022989026716785103 0.024304774568782661
474 0.023953422374724948 0.025015431601314777
475 0.023380314400887985 0.024657850550914018
476 0.046232401616167061 0.048626363347310228
477 0.023518532923154065 0.024685953423408801
478 0.04589285837198688 0.048485670410660771
479 0.023027230867224281 0.024290370825300566
480 0.045883532561935642 0.048410879444440745
481 0.047718981794189479 0.050266899689407597
482 0.022910904625463246 0.024210636534030404
483 0.023769745985460687 0.024879393030883906
484 0.022945516470312548 0.024216827631074071
485 0.023034567852309409 0.024359784255301602
486 0.023321114134029222 0.024567611751077172
487 0.022964635515609119 0.0242282391720481
488 0.022991449314752672 0.024319071135667131
489 0.045901766558009059 0.048639248037470162
490 0.024409909650331449 0.025683705540717708
491 0.02306305156040428 0.024351233625347201
492 0.023546914509609607 0.024731509709289449
493 0.023197655233118931 0.024423847195015301
494 0.046448276917344454 0.048897973850140809
495 0.023649404175327012 0.024855788962774388
496 0.023825411952315963 0.025032057965837056
497 0.06864575176395149 0.072809171671868136
498 0.023519942727877455 0.024723796811799235
499 0.045918156948309342 0.04850862385703901
500 0.022851256316875897 0.024200189940527743
501 0.022997293620402436 0.024288811686119419
502 0.047159359136484134 0.04982413690808845
503 0.023196170407537377 0.024603420985718966
504 0.04601211419469229 0.048630422750485354
505 0.022971582467740798 0.024331451067649518
506 0.022944661066733058 0.02427550164726611
507 0.022950129063875346 0.024309623726170387
508 0.068894285658529245 0.073153063068826976
509 0.022824849962753534 0.024224027556898075
510 0.023277471023139946 0.024590861374973925
511 0.023328938142016212 0.024708592390889215
512 0.023293432863661524 0.024575850639403995
513 0.070967458913111764 0.075314521225194983
514 0.022861833497705965 0.024288452646902915
515 0.022945648426857354 0.024327406392531881
516 0.34787476740519946 0.36749425227579063
517 0.047651937762708554 0.050299828077566937
518 0.20560336486000491 0.21858809223744902
519 0.045754420543878009 0.048845330174405843
520 0.023319342370398684 0.024721510794865537
521 0.022944619505752158 0.02432651331850753
522 0.022792900146713778 0.024292407123696142
523 0.023036445643729912 0.024533137019694496
524 0.023327523968050913 0.024777423763263962
525 0.023033413379672896 0.024663073963395978
526 0.02305490510952821 0.024435562980374519
527 0.022854453940768557 0.024379188674665285
528 0.022911652788686961 0.024488426451469213
529 0.023044836883092543 0.024578869047570236
530 0.023309752539283076 0.024832698568144785
531 0.023213621432408953 0.024774148860942414
532 0.022778817471991505 0.024282597921454444
533 0.023222005080597175 0.024637355156043348
534 0.023034463674789681 0.024613517880311003
535 0.023242182639071067 0.024642679659182393
536 0.023074387567232658 0.024526102542200116
537 0.022829670050403619 0.02439463937584397
538 0.045722945235866959 0.04890531088398254
539 0.069185525260762201 0.073852483969835694
540 0.022991661486720518 0.024467528214373965
541 0.023961875237041901 0.025488199142134526
542 0.023081239571693505 0.024509327209665116
543 0.022969369565117897 0.024577933859043305
544 0.023496403677901012 0.024973267489560948
545 0.069370914325089073 0.074218347698083803
546 0.023205948913129312 0.024880367439630645
547 0.022772636690819099 0.024284282367826218
548 0.07142982167721261 0.076002869655471803
549 0.022832912300498505 0.024338165924358703
550 0.023911079098951436 0.025760649334439851
551 0.022818991811121771 0.024328752560246743
552 0.022983878391064205 0.024581245705881414
553 0.18495979065788429 0.1971364664629966
554 0.023351934047542537 0.024880521998682511
555 0.022872408037942979 0.02458042058736621
556 0.023424432714177969 0.025125452460721284
557 0.11877156944318382 0.12860183797780603
558 0.023232034218905167 0.024870504775882717
559 0.022998002986713069 0.024744855739294597
560 0.046901799211229001 0.050670585415690986
561 0.13728024273243161 0.14671934348479201
562 0.023921509883891291 0.025656427537695516
563 0.02278448692628263 0.024511879229252128
564 0.023347995574908069 0.025022698473373153
565 0.022999866255978621 0.024552103653626235
566 0.045996692634850157 0.049582654090331038
567 0.045463689904904153 0.048828323841105664
568 0.023687692450359264 0.025594799816430706
569 0.023083672469649617 0.024988013585090386
570 0.022708867874027091 0.024381603386014507
571 0.023237522006020542 0.025105579397006802
572 0.023848489763650848 0.02597466326890192
573 0.022921037951007948 0.024716115280307791
574 0.047270974640560924 0.050797670057959723
575 0.022932272094761671 0.024603899455201618
576 0.02277011606522648 0.024428249419207543
577 0.04639202015690172 0.04973570325074695
578 0.045529048464964472 0.049114796941292824
579 0.023050935639573094 0.024992832447946523
580 0.022688919592945795 0.024361307561400293
581 0.045517350133002385 0.049086897254580063
582 0.069846890475846357 0.0755436010315194
583 0.022895725151100006 0.024527853180314946
584 0.02282259058035151 0.0246060824120009
585 0.09132834209337401 0.098214395571487173
586 0.022669264912866357 0.024389719114614343
587 0.022798560238116525 0.024542915353140324
588 0.022963406165037073 0.024777069092856874
589 0.022914381087229443 0.024573407931628804
590 0.022796223540479148 0.02465196245858526
591 0.046490061657670681 0.050228567668916993
592 0.023197627038785699 0.02528078673316525
593 0.022721734241570268 0.024499250305174351
594 0.023841176269512078 0.026122997218575229
595 0.022668102704769346 0.024438564815955435
596 0.022728462704335428 0.024437934805798096
597 0.022764917105761742 0.024573948873546615
598 0.022743086015571356 0.024567459628066973
599 0.023872617756816771 0.026103549444446403
600 0.022809035710177946 0.024560706084911791
601 0.069513346896187267 0.075380188624832825
602 0.02282505677455806 0.024587419842360257
603 0.13811145183645346 0.14856107635836979
604 0.023186396979837171 0.025024815971219153
605 0.022926576175555054 0.024660025261199793
606 0.023168529961248848 0.025071931899990636
607 0.023273991228929796 0.025425774527840166
608 0.023101082167946613 0.025092458694545294
609 0.022922649428417482 0.024888881390884021
610 0.045827954942790718 0.049670077962423398
611 0.023442494621750243 0.025706182601760309
612 0.045708206040163089 0.049319802644727934
613 0.023064431860170789 0.024883678004630372
614 0.068070873820686412 0.073545776553286132
615 0.045702718495508526 0.049463585034564772
616 0.023056324613693523 0.024915767824471323
617 0.045485956156000068 0.048995279033379094
618 0.023975570766003974 0.026570740938537191
619 0.047048141009730753 0.051733093090155377
620 0.022771307658959947 0.024650316857694705
621 0.022612525213317185 0.024444768046828141
622 0.02322087860151463 0.025279235702777542
623 0.023010349982495525 0.024993934505760946
624 0.18230847931248148 0.19702089361427558
625 0.022996323277712848 0.025084797781877131
626 0.023525001428009267 0.025769961939257319
627 0.023584472712454684 0.02594926029066183
628 0.046078819797346855 0.049920768648216846
629 0.022964086414525967 0.024968514494852864
630 0.047094591757086461 0.051463314431782384
631 0.022611892697453843 0.024482677560765234
632 0.023499597236441933 0.025694537882304271
633 0.02273667796615704 0.024688887024602153
634 0.022711878206715955 0.02453164383315672
635 0.022644946064853743 0.024480665512874578
636 0.022599932141529316 0.024592252381936804
637 0.023278352513652907 0.025362001857477202
638 0.022787313537794091 0.024623433258255972
639 0.022654704871779927 0.024643050456099106
640 0.023671991041711561 0.026518423271368639
641 0.023014399630604948 0.024933378165343467
642 0.022834384717144347 0.024774121140764865
643 0.022584558591849466 0.024487176509008963
644 0.023512736358677535 0.025757874538215618
645 0.022728330834911704 0.024845979013475308
646 0.045733609733475629 0.050401889998919661
647 0.023224430443020239 0.025403003452079274
648 0.023200894467277532 0.025278190198915817
649 0.04635798397578101 0.050465126617712762
650 0.022583622844173586 0.024620776701225814
651 0.045741841096297559 0.049578781543107818
652 0.022849621963793965 0.025003743771831958
653 0.022625856844319614 0.024704210055610857
654 0.022850772809529674 0.024896278847111659
655 0.02286410406606244 0.024831359973835461
656 0.047416857649081053 0.053345920639544429
657 0.022688772900255682 0.024714444620020565
658 0.022895834827389456 0.025346570702291387
659 0.022646816397128424 0.024764465598811406
660 0.045220121066358712 0.04952706987736194
661 0.022663181892565557 0.024812885341799321
662 0.045236042071311801 0.049442794491762691
663 0.24945853031961451 0.27131950847315706
664 0.022948926915521476 0.025082142419525874
665 0.02259532588916004 0.024762798826756163
666 0.20317156605900499 0.2212475834025234
667 0.022574107520293023 0.024546784180037366
668 0.045080230686588209 0.049120837276915137
669 0.022612770000214298 0.024583966226462875
670 0.069046820161292849 0.076648914031153675
671 0.06763286744185576 0.073615715293157094
672 0.045340774633599701 0.049298390512161408
673 0.022924912694540549 0.025042594995784095
674 0.022567677020593306 0.024743297523798245
675 0.022638668120325459 0.025058506852650816
676 0.022959504299843385 0.025621625284625187
677 0.022613546498963209 0.024590578830985466
678 0.045357964601170385 0.049337866752724953
679 0.023023089602404484 0.025326136131063989
680 0.022944533209921805 0.025503491702290385
681 0.022587585400307537 0.024592215994715491
682 0.022656010000595628 0.024752862874036007
683 0.022913681892527245 0.025069943573407097
684 0.068151533569203407 0.074403925257379655
685 0.045047355645581072 0.049341906869623663
686 0.04591332073667239 0.051477411894197071
687 0.18247108796842124 0.19960333004696859
688 0.022545152604048557 0.024896282387060951
689 0.045372781369305601 0.04974395009668648
690 0.022586291223387765 0.024678532857793364
691 0.023371858535208432 0.026442988716097626
692 0.022630274872798738 0.024765010697232543
693 0.022632240653878196 0.025215375116474051
694 0.022836124188207473 0.025002158744155508
695 0.022984707417061798 0.025574097102231796
696 0.022479443718534865 0.024587572475286205
697 0.022615987218115648 0.024666274574570719
698 0.023124354882198415 0.02560770770864575
699 0.023010123157365094 0.025480977603196647
700 0.02318640215839745 0.025751912546860767
701 0.022959993240198429 0.025271683218797449
702 0.068292731997551634 0.074810703891973543
703 0.022691515527617796 0.02519067202270029
704 0.045888014145316576 0.050536859566177553
705 0.022459996609786825 0.024689399415857263
706 0.023597498936608764 0.026743945021174304
707 0.04519359123150278 0.049340690658755765
708 0.022481338162122989 0.024646582216186982
709 0.022506480483281615 0.024612356258896021
710 0.022744798010710512 0.024900390450674083
711 0.022567122174507306 0.02502968183605327
712 0.11294207767731203 0.12402407056430578
713 0.022505494629797493 0.024604709245218046
714 0.022824440092463465 0.025336221585771375
715 0.046173655715434928 0.051870403632156725
716 0.022525374235288918 0.024956132464323627
717 0.023689673401452754 0.027674456488304338
718 0.045118725317712646 0.049515614474540517
719 0.089870997239488506 0.098746104978812269
720 0.022863335798762256 0.02557034719981641
721 0.02247552088374723 0.024827232667921136
722 0.022469601114807281 0.024656996097797
723 0.022846164193761245 0.025588239833046207
724 0.045138057707167611 0.049466180064165921
725 0.04488058143463261 0.049455614397995916
726 0.022774773118610696 0.025600077552615647
727 0.022439899118768907 0.024867924456990712
728 0.04486662119037664 0.049272878860867536
729 0.022487697230134527 0.024848856528008761
730 0.022474816445234806 0.024700492539680572
731 0.023114268472689131 0.025907176804796012
732 0.02261196338679785 0.02518086336159054
733 0.022916968901104812 0.025525812910727422
734 0.11605489300062063 0.13129296704834978
735 0.045262556978245209 0.050658445086538259
736 0.022643508302373525 0.024944861998680144
737 0.022420169134292327 0.024898437958496177
738 0.022599422899553939 0.024809564703430396
739 0.068952473532198133 0.079479157719340235
740 0.022695519360868405 0.025009714792049182
741 0.022558926792054759 0.02480765935259743
742 0.022403178359483376 0.024824106265146594
743 0.022684862052106236 0.025035954405350416
744 0.022578882423795285 0.024847346790587036
745 0.045791314577087433 0.05182408927575962
746 0.022406999651735 0.024916414696853753
747 0.04493762713571825 0.049374615652571549
748 0.022425284265884724 0.025103487123519775
749 0.022663035648795734 0.025784954960731243
750 0.022506073716407116 0.024816197062181963
751 0.29516856122073154 0.32729808098514879
752 0.022471826138582805 0.024714420141222746
753 0.022472248242775897 0.024852194336680865
754 0.067542393962190139 0.0755930094634851
755 0.022588936986809006 0.025288042517660925
756 0.022777734940283248 0.026327058363993516
757 0.022376232417271078 0.025040067024819427
758 0.045443166818340909 0.051547500917523144
759 0.022397398811655395 0.024710318442350689
760 0.022477410550977177 0.025366635660941834
761 0.022388186534180989 0.024770229716063043
762 0.0226268906494917 0.025224662387123901
763 0.022639204379433581 0.025051993218181592
764 0.022521284919457606 0.025033701835273099
765 0.022453704458424328 0.025397844480011866
766 0.045146753176869218 0.050506109733415003
767 0.02237738253368949 0.024722347232456608
768 0.022390423846206833 0.024909460710704826
769 0.17904660664269884 0.20122228509096854
770 0.022361141863608769 0.024711617491555656
771 0.022802167654936339 0.025575284030798045
772 0.022409866174701303 0.025003880991241938
773 0.022733889592269872 0.025727825267503109
774 0.022373190455063613 0.024725581224856033
775 0.11316696319613406 0.12740578902017108
776 0.02232487616549832 0.024844612218415902
777 0.022347488855207345 0.024929973089869144
778 0.022572802802137949 0.025064531997302533
779 0.022629661884615779 0.026107495732224643
780 0.045385083972104147 0.052232353541225858
781 0.022663399488233111 0.025343573753936206
782 0.044634446083839499 0.049771692189878751
783 0.15665589466422924 0.17319256549603851
784 0.02231241646387222 0.024906335040305885
785 0.02279693486919682 0.025921344129208403
786 0.022414972037885821 0.025202936194989922
787 0.022646035519584943 0.025352862603205562
788 0.04479176583623086 0.050090249070412672
789 0.022651006463012151 0.025337174530787761
790 0.02276975347709477 0.025755076925635931
791 0.022571264972613324 0.025558063763012066
792 0.1338974713457308 0.1485861546914313
793 0.022764635518326252 0.025825223686656698
794 0.044691289530124349 0.050084208068930498
795 0.022613139061618038 0.025814148082405591
796 0.022399856352907074 0.024889420811425856
797 0.13603026681551234 0.15485448654237022
798 0.022881007152796121 0.02682169844223568
799 0.089370243123713361 0.10234688879748691
800 0.044740498097197927 0.049696098546221097
801 0.022536001721414102 0.02518156615551841
802 0.022978895831627228 0.027439852610949035
803 0.023140487690411455 0.027339117944715493
804 0.022339173001580167 0.024902216401257858
805 0.022537959664177407 0.025395154845716215
806 0.022493182426868798 0.025076106171878457
807 0.0223037797754429 0.024794961721545598
808 0.022388461335461241 0.024864870908232195
809 0.022262795456416087 0.02491798681009804
810 0.022505981867533137 0.025386710127372415
811 0.044882743433263719 0.050243789559034954
812 0.045111550229895166 0.052254533728591977
813 0.022372945312523252 0.025099634948656347
814 0.022467452248652396 0.025526842716401158
815 0.044962795482168194 0.050251835266615814
816 0.067009451720734053 0.074451515691592599
817 0.022332509438305084 0.025098759624192359
818 0.022477083853722678 0.025123670667945658
819 0.022388235384172797 0.025052016679368613
820 0.022350512523427263 0.0250861926420985
821 0.27165159120334914 0.32172955647593182
822 0.022405762550377642 0.025365820851250415
823 0.11126465201794079 0.12597605617822027
824 0.066915242823276627 0.074633695222494981
825 0.022308267700802357 0.024901212051626018
826 0.022276339048290794 0.02508829859910643
827 0.11172703559205031 0.12492967349151363
828 0.088888208920772455 0.099853367746628285
829 0.022222514237189763 0.024888024092487741
830 0.02224485493023776 0.025465485683760749
831 0.022268627660440785 0.025345461285704765
832 0.022251350250706819 0.025414749082122011
833 0.02264832687293724 0.026166497115814358
834 0.022664604848806044 0.026262373619038666
835 0.022568388033190636 0.026422876153726585
836 0.044581163461937488 0.050758074828336587
837 0.02253885518646085 0.025750777235609538
838 0.022264483335502752 0.025589054435315284
839 0.044524262169485643 0.049875835960575737
840 0.022467223112446585 0.026216345024648872
841 0.088818579913736692 0.10065812473794478
842 0.022375821407411539 0.026215925169097772
843 0.022374079257579841 0.025537992099404064
844 0.044448141171714389 0.049929540715398547
845 0.022369290583975087 0.025232578822813743
846 0.022329419451100337 0.025659936263396615
847 0.022541055174168569 0.025973691596769904
848 0.022493099020472751 0.025660116780498572
849 0.088786289198101734 0.10095120908714335
850 0.022199469672811809 0.025057876645628526
851 0.022351878981247113 0.025407402165790315
852 0.17908789181020338 0.20765930217740453
853 0.044388011856107433 0.049817775420522403
854 0.022306962475580672 0.025618116131762573
855 0.022253813410769839 0.02503236709913173
856 0.022171772790075293 0.025428949492477915
857 0.022356270204202357 0.025393942612549798
858 0.022351967724268125 0.025317598102939938
859 0.0222657775880566 0.025297193468881797
860 0.022174180386673695 0.02506157788448644
861 0.02221355822674714 0.025493569492268889
862 0.022206257727069363 0.024913517195502492
863 1.1357350529511809 1.3024757921274934
864 0.022175959881916441 0.026216370366792519
865 0.022321643546100028 0.026202268177220055
866 0.022157026249299275 0.025058113202954254
867 2.7148563232489367 3.1693152573884826
868 0.022032924743261177 0.025824825286851944
869 0.022005964248751859 0.02544044895356402
870 0.022019618012401179 0.025544915569889224
871 0.021991868552095211 0.025270400918982482
872 0.02206905713331897 0.025833216465608471
873 0.021998607831047259 0.025402804097988931
874 0.065969634252694864 0.075406646111314674
875 0.022029785860367329 0.025608585322528583
876 0.021991207532001598 0.025319746015182873
877 0.021996868775361427 0.025193566558946154
878 0.022023824122056251 0.025445904557027259
879 0.021991025321569057 0.025186486485750295
880 0.043993336309230698 0.05042154640393684
881 0.022003730880724406 0.025666147700399111
882 0.022062861284358821 0.025974228560044388
883 0.022121442357000948 0.026745821490981727
884 0.022053841384449858 0.026019977868845936
885 0.044074933902793254 0.051881109876062349
886 0.043976805143803262 0.050875395898775558
887 0.022121257760085899 0.026930604249784381
888 0.022048410873464156 0.025924006572619986
889 0.022080957023708828 0.026626324606495867
890 0.021997792476573113 0.025356945255496595
891 0.021966101874598284 0.025320909997943907
892 0.021990611540333313 0.02557177468336232
893 0.02204622434793 0.026560414578292123
894 0.021981945170426842 0.025669307342985198
895 0.35249316935569314 0.42774809065281627
896 0.044002937249112764 0.052137768188733342
897 0.021961827694501994 0.025974947487682302
898 0.021962391229073314 0.025990620945219825
899 0.021952369333502138 0.025670911950514325
900 0.021971570251690626 0.025674570425129956
901 0.021940361916168764 0.025578164567469284
902 0.021960891020728138 0.025786493093288346
903 0.021926080845922801 0.025203729144788172
904 0.021953954405035812 0.025485345407314945
905 0.022018363197598086 0.027188061598585316
906 0.021964896266314579 0.025879598713129299
907 0.021977766054361435 0.026151706693456376
908 0.021964683585070366 0.025966886597208645
909 0.021939425367047436 0.025458871416036449
910 0.02204306127744813 0.027368999779480166
911 0.022013149858779349 0.026883045104105902
912 0.021917230875898253 0.025259012095652584
913 0.022009586207447054 0.026809380520235883
914 0.021945584590715991 0.025561122538525854
915 0.043927589691447867 0.052430530760505537
916 0.021909671193234306 0.025311339317072218
917 0.021959900259205661 0.026050027158068909
918 0.021925327205132621 0.025420379930461399
919 0.021910534132840737 0.025472288584533015
920 0.021940003466680669 0.025715913039260865
921 0.043851990134149706 0.05084197843524866
922 0.021928247538327606 0.02563355718321568
923 0.021954141811758129 0.026445813839078788
924 0.022000007927396103 0.027117316970248283
925 0.022029266603655676 0.028154419938337082
926 0.022033531810810476 0.029306523721516802
927 0.021894333506713323 0.025335487367544218
928 0.021894697153999026 0.025351069496329648
929 0.021939769600669536 0.026389741401932815
930 0.021892444071979583 0.025303148315487405
931 0.021895145248402408 0.025506780762321317
932 0.021898012318688993 0.025263608226274679
933 0.02193173529212664 0.026500672388985659
934 0.04386203721318889 0.052257644791722714
935 0.021923077759477272 0.025809106812100521
936 0.021898572222727376 0.025418065866953797
937 0.021900254102809102 0.025894269009424101
938 0.021953780770700693 0.026724358400781946
939 0.021915264997732244 0.026476299043796177
940 0.043775310589565693 0.050629511518476125
941 0.021881880289316893 0.025421737430893085
942 0.021888712618548328 0.025590975652160244
943 0.021888085765568051 0.025295526891053341
944 0.021885705128354516 0.025417963070111231
945 0.021879636037820772 0.02549446762342308
946 0.043797727299056552 0.052913473978418557
947 0.021883362949514051 0.025590237511030723
948 0.021926774409664937 0.026656627421429057
949 0.021915400755475749 0.02729347679319075
950 0.021885827280487085 0.025654384573679426
951 0.087573069495179068 0.10617334954325298
952 0.021868166341806768 0.025335063980389205
953 0.043798992174584286 0.052677399847295574
954 0.021877454000207398 0.026093960423238978
955 0.021866545021578213 0.02560769466494087
956 0.021895906964061372 0.02649499307168553
957 0.021866529091200553 0.025443144452442432
958 0.021875361946922009 0.026145799502373366
959 0.087470601205319673 0.10294990554815404
960 0.021892875780474903 0.026891211779595671
961 0.021853639217148512 0.025292586091854165
962 0.021870608823159408 0.02608309061918657
963 0.021884660736084256 0.02676866746000639
964 0.021871889308413987 0.02611488103885232
965 0.021850809085171792 0.025537709794290542
966 0.021884302899270777 0.026985933177856074
967 0.021876044912528033 0.026429438431663295
968 0.021859148484531323 0.02583131075670669
969 0.021849865098657873 0.025825544165776933
970 0.043707360991817254 0.052486180055045566
971 0.021846363145844996 0.025467012620778579
972 0.021872867482885302 0.026911603898833986
973 0.02188161010930087 0.027665410840436246
974 0.021841344501161274 0.025483345449441183
975 0.021851252730602767 0.025965073372746346
976 0.043723411146727967 0.05341564727369446
977 0.021835800272520325 0.026217781312882184
978 0.021830485407395003 0.025399294623285138
979 0.043696592463943584 0.056000352261363351
980 0.021831178970365742 0.025443421602917463
981 0.04365428540199659 0.050740816800306392
982 0.021830405379535667 0.02637980906114868
983 0.021829326772642765 0.027047549343813829
984 0.043672863076811085 0.05266710598109408
985 0.021824735712977886 0.026631378977056606
986 0.021830943381577917 0.026991622660171757
987 0.043677151181705148 0.059488183420631668
988 0.021825582292939086 0.026626611402718405
989 0.021808108033851237 0.026209668823826623
990 0.021818890363871642 0.026088804806273267
991 0.021804627272603957 0.025854981601602947
992 0.087216564451546921 0.10269550390464982
993 0.065417012875471706 0.084120947385108946
994 0.021801769385114723 0.028577736972657568
995 0.021799191433981534 0.026634771002617973
996 0.021796628711669503 0.026184781766851708
997 0.043581569484854442 0.053053760430237525
998 0.021790610138571094 0.025629577560711689
999 0.04357569293147126 0.051578791415835212
