# #Node_id x y
0 0.13478126618998831 0.0071024331899679728
1 1.0983571345882825 0.057879024197187746
2 0.59727087145210689 0.031473784011072384
3 0.27058806483468223 0.014258907835025437
4 0.092552208624565646 0.004877130901956038
5 0.31323885483373298 0.016506433734066874
6 1.0183474983130494 0.053662836649302624
7 0.228037950447778 0.012016687137732761
8 0.15170092189278014 0.0079940313150141246
9 0.36455292657852523 0.019210479901424226
10 0.53665223267153861 0.028279424407721455
11 1.0183474983130494 0.053662836649302624
12 0.042009305923453318 0.002213722256160398
13 0.88574304196389408 0.046675112624033614
14 1.358459348266756 0.071585369651832251
15 0.40742578295849236 0.021469707809793712
16 0.33032739689708018 0.017406931494251078
17 0.41601249334115076 0.021922193073795195
18 0.29616644722195901 0.015606786194893234
19 0.39026450526200945 0.020565377172908735
20 0.18558834710563774 0.0097797629701470035
21 0.89455444103164394 0.047139438082295627
22 0.084118400614308558 0.0044327029809018807
23 0.83296114532093735 0.04389371796034236
24 0.050423136517817199 0.002657097447367886
25 0.69293255581004798 0.036514771836742149
26 0.76281557043119286 0.04019732696098776
27 0.58859884475946356 0.031016802919061566
28 0.25355594722567415 0.013361383417714045
29 0.23653992717763148 0.01246470727742582
30 0.78032732250062131 0.041120126194354879
31 0.12632744796669668 0.0066569508107890713
32 0.38168993530649081 0.020113531660818675
33 0.7278412856795905 0.038354322158932849
34 0.19407023478456459 0.010226724497274096
35 0.59727087145210689 0.031473784011072384
36 0.29616644722195901 0.015606786194893234
37 1.2055601311265935 0.063528192974134076
38 0.084118400614308558 0.0044327029809018807
39 1.1876513339161661 0.062584471051233687
40 0.18558834710563774 0.0097797629701470035
41 0.64069219025918778 0.03376191369381961
42 0.10943182421078429 0.0057666190731419801
43 0.058840959973053553 0.003100683046359699
44 0.228037950447778 0.012016687137732761
45 0.10099001605268099 0.0053217695763214199
46 0.042009305923453318 0.002213722256160398
47 0.21104605699616832 0.011121282372496403
48 0.07568859071002422 0.0039884857440277447
49 1.3223743082382242 0.069683832493108666
50 0.14323909039423208 0.0075481266683068513
51 0.16863661202742511 0.0088864743904320479
52 0.58859884475946356 0.031016802919061566
53 0.29616644722195901 0.015606786194893234
54 0.64938870037948526 0.034220184964459326
55 0.092552208624565646 0.004877130901956038
56 0.91218960800229187 0.04806874078691991
57 0.28763629053991541 0.015157281084525931
58 0.27058806483468223 0.014258907835025437
59 0.092552208624565646 0.004877130901956038
60 0.45039984259911936 0.023734268724876863
61 0.60594697539854603 0.031930979958036641
62 0.084118400614308558 0.0044327029809018807
63 1.0538658664781682 0.055534512469247767
64 0.27911016351666446 0.014707988321046032
65 0.7978554952339717 0.042043790730977755
66 0.55395148400230321 0.02919102570281561
67 0.228037950447778 0.012016687137732761
68 0.050423136517817199 0.002657097447367886
69 0.050423136517817199 0.002657097447367886
70 0.70165359716252695 0.036974335805117553
71 0.21104605699616832 0.011121282372496403
72 0.058840959973053553 0.003100683046359699
73 0.033599466879298073 0.0017705574036704099
74 0.16016676199923041 0.0084401471993111269
75 0.36455292657852523 0.019210479901424226
76 0.58859884475946356 0.031016802919061566
77 0.47623292467108586 0.025095568738548416
78 0.12632744796669668 0.0066569508107890713
79 0.39026450526200945 0.020565377172908735
80 0.01679175820017231 0.00088485843864019164
81 0.10099001605268099 0.0053217695763214199
82 1.0272208751850775 0.054130428089749057
83 0.10099001605268099 0.0053217695763214199
84 0.16016676199923041 0.0084401471993111269
85 0.01679175820017231 0.00088485843864019164
86 0.050423136517817199 0.002657097447367886
87 0.07568859071002422 0.0039884857440277447
88 0.058840959973053553 0.003100683046359699
89 0.0083938859450920569 0.00044232418803063768
90 0.033599466879298073 0.0017705574036704099
91 0.033599466879298073 0.0017705574036704099
92 0.050423136517817199 0.002657097447367886
93 0.067262777600071599 0.0035444791222154931
94 0.19407023478456459 0.010226724497274096
95 0.58859884475946356 0.031016802919061566
96 0.15170092189278014 0.0079940313150141246
97 0.16863661202742511 0.0088864743904320479
98 0.084118400614308558 0.0044327029809018807
99 0.042009305923453318 0.002213722256160398
100 0.51936925323747651 0.027368680576445904
101 0.0083938859450920569 0.00044232418803063768
102 0.01679175820017231 0.00088485843864019164
103 0.0083938859450920569 0.00044232418803063768
104 0.067262777600071599 0.0035444791222154931
105 0.16016676199923041 0.0084401471993111269
106 0.94750945467696479 0.049929955319013182
107 0.050423136517817199 0.002657097447367886
108 0.01679175820017231 0.00088485843864019164
109 0.025193618074929845 0.0013276028208440433
110 0.21104605699616832 0.011121282372496403
111 0.0083938859450920569 0.00044232418803063768
112 0.0083938859450920569 0.00044232418803063768
113 0.042009305923453318 0.002213722256160398
114 0.033599466879298073 0.0017705574036704099
115 0.25355594722567415 0.013361383417714045
116 0.058840959973053553 0.003100683046359699
117 0.01679175820017231 0.00088485843864019164
118 0.0083938859450920569 0.00044232418803063768
119 0.56260721494141375 0.029647148073848436
120 0.01679175820017231 0.00088485843864019164
121 0.058840959973053553 0.003100683046359699
122 0.0083938859450920569 0.00044232418803063768
123 0.01679175820017231 0.00088485843864019164
124 0.033599466879298073 0.0017705574036704099
125 0.0083938859450920569 0.00044232418803063768
126 0.050423136517817199 0.002657097447367886
127 0.025193618074929845 0.0013276028208440433
128 0.025193618074929845 0.0013276028208440433
129 0.084118400614308558 0.0044327029809018807
130 0.025193618074929845 0.0013276028208440433
131 0.35599048516586501 0.018759273514991317
132 0.033599466879298073 0.0017705574036704099
133 0.084118400614308558 0.0044327029809018807
134 0.01679175820017231 0.00088485843864019164
135 0.01679175820017231 0.00088485843864019164
136 0.084118400614308558 0.0044327029809018807
137 0.33032739689708018 0.017406931494251078
138 0.025193618074929845 0.0013276028208440433
139 0.042009305923453318 0.002213722256160398
140 0.01679175820017231 0.00088485843864019164
141 0.0083938859450920569 0.00044232418803063768
142 0.050423136517817199 0.002657097447367886
143 0.042009305923453318 0.002213722256160398
144 0.042009305923453318 0.002213722256160398
145 0.10943182421078429 0.0057666190731419801
146 0.042009305923453318 0.002213722256160398
147 0.01679175820017231 0.00088485843864019164
148 0.01679175820017231 0.00088485843864019164
149 0.042009305923453318 0.002213722256160398
150 0.042009305923453318 0.002213722256160398
151 0.0083938859450920569 0.00044232418803063768
152 0.0083938859450920569 0.00044232418803063768
153 0.084118400614308558 0.0044327029809018807
154 0.14323909039423208 0.0075481266683068513
155 0.07568859071002422 0.0039884857440277447
156 0.99175220963271771 0.052261371398532916
157 0.033599466879298073 0.0017705574036704099
158 0.025193618074929845 0.0013276028208440433
159 0.28763629053991541 0.015157281084525931
160 0.0083938859450920569 0.00044232418803063768
161 0.058840959973053553 0.003100683046359699
162 0.01679175820017231 0.00088485843864019164
163 0.35599048516586501 0.018759273514991317
164 0.01679175820017231 0.00088485843864019164
165 0.10099001605268099 0.0053217695763214199
166 0.01679175820017231 0.00088485843864019164
167 0.042009305923453318 0.002213722256160398
168 0.0083938859450920569 0.00044232418803063768
169 0.51936925323747651 0.027368680576445904
170 0.033599466879298073 0.0017705574036704099
171 0.20255613764305316 0.010673897608290907
172 0.025193618074929845 0.0013276028208440433
173 0.01679175820017231 0.00088485843864019164
174 0.21953999415922471 0.0115688788592022
175 0.033599466879298073 0.0017705574036704099
176 0.033599466879298073 0.0017705574036704099
177 0.042009305923453318 0.002213722256160398
178 0.0083938859450920569 0.00044232418803063768
179 0.067262777600071599 0.0035444791222154931
180 0.0083938859450920569 0.00044232418803063768
181 0.10943182421078429 0.0057666190731419801
182 0.01679175820017231 0.00088485843864019164
183 0.16863661202742511 0.0088864743904320479
184 0.033599466879298073 0.0017705574036704099
185 0.01679175820017231 0.00088485843864019164
186 0.46761784037103482 0.024641588282682928
187 0.07568859071002422 0.0039884857440277447
188 0.17711047329144963 0.0093330129576240598
189 0.14323909039423208 0.0075481266683068513
190 0.12632744796669668 0.0066569508107890713
191 0.058840959973053553 0.003100683046359699
192 0.52800870962979041 0.027823945344010656
193 0.10099001605268099 0.0053217695763214199
194 0.17711047329144963 0.0093330129576240598
195 0.11787763441124992 0.0062116794615746512
196 0.37311940951873951 0.019661899260180828
197 0.27911016351666446 0.014707988321046032
198 0.39884312070576983 0.021017435866035095
199 0.0083938859450920569 0.00044232418803063768
200 0.228037950447778 0.012016687137732761
201 0.01679175820017231 0.00088485843864019164
202 0.60594697539854603 0.031930979958036641
203 0.14323909039423208 0.0075481266683068513
204 0.058840959973053553 0.003100683046359699
205 0.033599466879298073 0.0017705574036704099
206 0.092552208624565646 0.004877130901956038
207 0.14323909039423208 0.0075481266683068513
208 0.18558834710563774 0.0097797629701470035
209 0.050423136517817199 0.002657097447367886
210 0.042009305923453318 0.002213722256160398
211 0.16016676199923041 0.0084401471993111269
212 0.27911016351666446 0.014707988321046032
213 0.27911016351666446 0.014707988321046032
214 0.042009305923453318 0.002213722256160398
215 0.033599466879298073 0.0017705574036704099
216 0.058840959973053553 0.003100683046359699
217 0.033599466879298073 0.0017705574036704099
218 0.025193618074929845 0.0013276028208440433
219 0.0083938859450920569 0.00044232418803063768
220 0.18558834710563774 0.0097797629701470035
221 0.050423136517817199 0.002657097447367886
222 0.01679175820017231 0.00088485843864019164
223 0.050423136517817199 0.002657097447367886
224 0.23653992717763148 0.01246470727742582
225 0.092552208624565646 0.004877130901956038
226 0.033599466879298073 0.0017705574036704099
227 0.01679175820017231 0.00088485843864019164
228 0.18558834710563774 0.0097797629701470035
229 0.033599466879298073 0.0017705574036704099
230 0.01679175820017231 0.00088485843864019164
231 0.0083938859450920569 0.00044232418803063768
232 0.025193618074929845 0.0013276028208440433
233 0.0083938859450920569 0.00044232418803063768
234 0.084118400614308558 0.0044327029809018807
235 0.13478126618998831 0.0071024331899679728
236 1.0716499246299924 0.056471661143098352
237 0.0083938859450920569 0.00044232418803063768
238 0.050423136517817199 0.002657097447367886
239 0.13478126618998831 0.0071024331899679728
240 0.33887772164450969 0.01785749938093022
241 0.033599466879298073 0.0017705574036704099
242 0.01679175820017231 0.00088485843864019164
243 0.0083938859450920569 0.00044232418803063768
244 0.0083938859450920569 0.00044232418803063768
245 0.21953999415922471 0.0115688788592022
246 0.092552208624565646 0.004877130901956038
247 0.01679175820017231 0.00088485843864019164
248 0.033599466879298073 0.0017705574036704099
249 0.15170092189278014 0.0079940313150141246
250 0.0083938859450920569 0.00044232418803063768
251 0.12632744796669668 0.0066569508107890713
252 0.084118400614308558 0.0044327029809018807
253 0.025193618074929845 0.0013276028208440433
254 0.07568859071002422 0.0039884857440277447
255 0.050423136517817199 0.002657097447367886
256 0.025193618074929845 0.0013276028208440433
257 0.033599466879298073 0.0017705574036704099
258 0.01679175820017231 0.00088485843864019164
259 0.067262777600071599 0.0035444791222154931
260 0.13478126618998831 0.0071024331899679728
261 0.025193618074929845 0.0013276028208440433
262 0.17711047329144963 0.0093330129576240598
263 0.0083938859450920569 0.00044232418803063768
264 0.050423136517817199 0.002657097447367886
265 0.01679175820017231 0.00088485843864019164
266 0.07568859071002422 0.0039884857440277447
267 0.13478126618998831 0.0071024331899679728
268 0.13478126618998831 0.0071024331899679728
269 0.058840959973053553 0.003100683046359699
270 0.084118400614308558 0.0044327029809018807
271 0.042009305923453318 0.002213722256160398
272 0.01679175820017231 0.00088485843864019164
273 0.16016676199923041 0.0084401471993111269
274 0.01679175820017231 0.00088485843864019164
275 0.033599466879298073 0.0017705574036704099
276 0.025193618074929845 0.0013276028208440433
277 0.11787763441124992 0.0062116794615746512
278 0.084118400614308558 0.0044327029809018807
279 0.0083938859450920569 0.00044232418803063768
280 0.067262777600071599 0.0035444791222154931
281 0.033599466879298073 0.0017705574036704099
282 0.0083938859450920569 0.00044232418803063768
283 0.033599466879298073 0.0017705574036704099
284 0.07568859071002422 0.0039884857440277447
285 0.025193618074929845 0.0013276028208440433
286 0.31323885483373298 0.016506433734066874
287 0.092552208624565646 0.004877130901956038
288 0.042009305923453318 0.002213722256160398
289 0.14323909039423208 0.0075481266683068513
290 0.058840959973053553 0.003100683046359699
291 0.067262777600071599 0.0035444791222154931
292 0.042009305923453318 0.002213722256160398
293 0.16016676199923041 0.0084401471993111269
294 0.025193618074929845 0.0013276028208440433
295 0.10099001605268099 0.0053217695763214199
296 0.0083938859450920569 0.00044232418803063768
297 0.0083938859450920569 0.00044232418803063768
298 0.12632744796669668 0.0066569508107890713
299 0.050423136517817199 0.002657097447367886
300 0.050423136517817199 0.002657097447367886
301 0.01679175820017231 0.00088485843864019164
302 0.0083938859450920569 0.00044232418803063768
303 0.01679175820017231 0.00088485843864019164
304 0.01679175820017231 0.00088485843864019164
305 0.033599466879298073 0.0017705574036704099
306 0.0083938859450920569 0.00044232418803063768
307 0.050423136517817199 0.002657097447367886
308 0.033599466879298073 0.0017705574036704099
309 0.0083938859450920569 0.00044232418803063768
310 0.0083938859450920569 0.00044232418803063768
311 0.042009305923453318 0.002213722256160398
312 0.050423136517817199 0.002657097447367886
313 0.025193618074929845 0.0013276028208440433
314 0.01679175820017231 0.00088485843864019164
315 0.025193618074929845 0.0013276028208440433
316 0.0083938859450920569 0.00044232418803063768
317 0.0083938859450920569 0.00044232418803063768
318 0.025193618074929845 0.0013276028208440433
319 0.0083938859450920569 0.00044232418803063768
320 0.0083938859450920569 0.00044232418803063768
321 0.10943182421078429 0.0057666190731419801
322 0.11787763441124992 0.0062116794615746512
323 0.050423136517817199 0.002657097447367886
324 0.033599466879298073 0.0017705574036704099
325 0.058840959973053553 0.003100683046359699
326 0.033599466879298073 0.0017705574036704099
327 0.025193618074929845 0.0013276028208440433
328 0.20255613764305316 0.010673897608290907
329 0.050423136517817199 0.002657097447367886
330 0.07568859071002422 0.0039884857440277447
331 0.0083938859450920569 0.00044232418803063768
332 0.050423136517817199 0.002657097447367886
333 0.050423136517817199 0.002657097447367886
334 0.01679175820017231 0.00088485843864019164
335 0.067262777600071599 0.0035444791222154931
336 0.10099001605268099 0.0053217695763214199
337 0.17711047329144963 0.0093330129576240598
338 0.0083938859450920569 0.00044232418803063768
339 0.033599466879298073 0.0017705574036704099
340 0.050423136517817199 0.002657097447367886
341 0.0083938859450920569 0.00044232418803063768
342 0.0083938859450920569 0.00044232418803063768
343 0.01679175820017231 0.00088485843864019164
344 0.01679175820017231 0.00088485843864019164
345 0.058840959973053553 0.003100683046359699
346 0.01679175820017231 0.00088485843864019164
347 0.0083938859450920569 0.00044232418803063768
348 0.01679175820017231 0.00088485843864019164
349 0.033599466879298073 0.0017705574036704099
350 0.01679175820017231 0.00088485843864019164
351 0.0083938859450920569 0.00044232418803063768
352 0.042009305923453318 0.002213722256160398
353 0.0083938859450920569 0.00044232418803063768
354 0.01679175820017231 0.00088485843864019164
355 0.025193618074929845 0.0013276028208440433
356 0.0083938859450920569 0.00044232418803063768
357 0.050423136517817199 0.002657097447367886
358 0.0083938859450920569 0.00044232418803063768
359 0.050423136517817199 0.002657097447367886
360 0.092552208624565646 0.004877130901956038
361 0.092552208624565646 0.004877130901956038
362 0.033599466879298073 0.0017705574036704099
363 0.042009305923453318 0.002213722256160398
364 0.033599466879298073 0.0017705574036704099
365 0.01679175820017231 0.00088485843864019164
366 0.01679175820017231 0.00088485843864019164
367 0.0083938859450920569 0.00044232418803063768
368 0.01679175820017231 0.00088485843864019164
369 0.0083938859450920569 0.00044232418803063768
370 0.025193618074929845 0.0013276028208440433
371 0.025193618074929845 0.0013276028208440433
372 0.0083938859450920569 0.00044232418803063768
373 0.0083938859450920569 0.00044232418803063768
374 0.025193618074929845 0.0013276028208440433
375 0.01679175820017231 0.00088485843864019164
376 0.033599466879298073 0.0017705574036704099
377 0.025193618074929845 0.0013276028208440433
378 0.0083938859450920569 0.00044232418803063768
379 0.0083938859450920569 0.00044232418803063768
380 0.0083938859450920569 0.00044232418803063768
381 0.01679175820017231 0.00088485843864019164
382 0.0083938859450920569 0.00044232418803063768
383 0.01679175820017231 0.00088485843864019164
384 0.01679175820017231 0.00088485843864019164
385 0.0083938859450920569 0.00044232418803063768
386 0.01679175820017231 0.00088485843864019164
387 0.01679175820017231 0.00088485843864019164
388 0.0083938859450920569 0.00044232418803063768
389 0.0083938859450920569 0.00044232418803063768
390 0.025193618074929845 0.0013276028208440433
391 0.01679175820017231 0.00088485843864019164
392 0.01679175820017231 0.00088485843864019164
393 0.0083938859450920569 0.00044232418803063768
394 0.01679175820017231 0.00088485843864019164
395 0.0083938859450920569 0.00044232418803063768
396 0.01679175820017231 0.00088485843864019164
397 0.0083938859450920569 0.00044232418803063768
398 0.01679175820017231 0.00088485843864019164
399 0.0083938859450920569 0.00044232418803063768
400 0.025193618074929845 0.0013276028208440433
401 0.033599466879298073 0.0017705574036704099
402 0.0083938859450920569 0.00044232418803063768
403 0.025193618074929845 0.0013276028208440433
404 0.01679175820017231 0.00088485843864019164
405 0.0083938859450920569 0.00044232418803063768
406 0.0083938859450920569 0.00044232418803063768
407 0.033599466879298073 0.0017705574036704099
408 0.0083938859450920569 0.00044232418803063768
409 0.0083938859450920569 0.00044232418803063768
410 0.01679175820017231 0.00088485843864019164
411 0.0083938859450920569 0.00044232418803063768
412 0.0083938859450920569 0.00044232418803063768
413 0.01679175820017231 0.00088485843864019164
414 0.0083938859450920569 0.00044232418803063768
415 0.0083938859450920569 0.00044232418803063768
416 0.0083938859450920569 0.00044232418803063768
