# #Node_id x y
0 0.18765146284936812 0.18928830167018429
1 1.5132138431533992 1.5264132455191466
2 0.82723450188808134 0.83445027055861853
3 0.37614169809460829 0.37942269214720037
4 0.12892080470850828 0.13004535004779583
5 0.43521869761623044 0.43901500620336442
6 1.4041374065110543 1.4163853612130242
7 0.31714771635529709 0.31991412001760294
8 0.21116664158217979 0.21300859768182687
9 0.50622117555026946 0.51063682176734693
10 0.74377104087123658 0.7502587777372911
11 1.4041374065110543 1.4163853612130242
12 0.058551655160611844 0.059062387241964512
13 1.2229860933516297 1.2336539084835754
14 1.8666811286730152 1.8829637416145919
15 0.56548205484792469 0.57041461953884309
16 0.45887282104845806 0.46287545889579779
17 0.57734431739045544 0.58238035375986497
18 0.41157791323548276 0.41516800891576594
19 0.54176762502517051 0.54649333441766501
20 0.25823640339732462 0.26048893776934806
21 1.2350380207714178 1.2458109619832076
22 0.11718447214934276 0.11820664426725942
23 1.1507485514791207 1.1607862558138375
24 0.070271714815557967 0.070884678173630811
25 0.95873134166749141 0.96709412581500542
26 1.0546283600558353 1.0638276309544523
27 0.8153008836447555 0.82241255821809323
28 0.35253416286396166 0.35560923403408551
29 0.32893988806788665 0.3318091520231411
30 1.0786374246023773 1.088046120827632
31 0.17589878941408407 0.17743311247597598
32 0.52991545202135648 0.53453777774399247
33 1.0066520513601027 1.0154328363947662
34 0.27001206915633369 0.27236731984382107
35 0.82723450188808134 0.83445027055861853
36 0.41157791323548276 0.41516800891576594
37 1.6591038378832113 1.6735758037734656
38 0.11718447214934276 0.11820664426725942
39 1.6347525432664585 1.6490120986390402
40 0.25823640339732462 0.26048893776934806
41 0.88695410370089767 0.89469079217204084
42 0.15240326071654292 0.15373263790216096
43 0.081995023636218176 0.082710246612706442
44 0.31714771635529709 0.31991412001760294
45 0.14066039999002747 0.14188734701063249
46 0.058551655160611844 0.059062387241964512
47 0.2935732903802124 0.29613405996416609
48 0.10545139959366964 0.10637122692644602
49 1.817743791672404 1.8335995359300192
50 0.19940741265817993 0.20114679581694289
51 0.234694947761521 0.23674213564757471
52 0.8153008836447555 0.82241255821809323
53 0.41157791323548276 0.41516800891576594
54 0.89890834695851118 0.90674930943391963
55 0.12892080470850828 0.13004535004779583
56 1.2591524781754493 1.2701357640305611
57 0.39976251614284464 0.40324954894074516
58 0.37614169809460829 0.37942269214720037
59 0.12892080470850828 0.13004535004779583
60 0.62482708540001264 0.63027730259603387
61 0.83917155022096923 0.8464914429085566
62 0.11718447214934276 0.11820664426725942
63 1.4525799138570259 1.4652504209622521
64 0.38795044536512951 0.39133444429529674
65 1.102660461727675 1.1122787051590295
66 0.7676006525267941 0.77429624939484654
67 0.31714771635529709 0.31991412001760294
68 0.070271714815557967 0.070884678173630811
69 0.070271714815557967 0.070884678173630811
70 0.97070631724975309 0.97917355624464075
71 0.2935732903802124 0.29613405996416609
72 0.081995023636218176 0.082710246612706442
73 0.046834841971315398 0.047243371094091151
74 0.22292915236685371 0.22487371003427048
75 0.50622117555026946 0.51063682176734693
76 0.8153008836447555 0.82241255821809323
77 0.66047464578270776 0.66623580812040706
78 0.17589878941408407 0.17743311247597598
79 0.54176762502517051 0.54649333441766501
80 0.02341094420809434 0.023615152274100895
81 0.14066039999002747 0.14188734701063249
82 1.4162426597587714 1.4285962056890258
83 0.14066039999002747 0.14188734701063249
84 0.22292915236685371 0.22487371003427048
85 0.02341094420809434 0.023615152274100895
86 0.070271714815557967 0.070884678173630811
87 0.10545139959366964 0.10637122692644602
88 0.081995023636218176 0.082710246612706442
89 0.011703854252699635 0.011805944173572629
90 0.046834841971315398 0.047243371094091151
91 0.046834841971315398 0.047243371094091151
92 0.070271714815557967 0.070884678173630811
93 0.093721584326401652 0.094539095286585287
94 0.27001206915633369 0.27236731984382107
95 0.8153008836447555 0.82241255821809323
96 0.21116664158217979 0.21300859768182687
97 0.234694947761521 0.23674213564757471
98 0.11718447214934276 0.11820664426725942
99 0.058551655160611844 0.059062387241964512
100 0.71995506718779012 0.72623506301261487
101 0.011703854252699635 0.011805944173572629
102 0.02341094420809434 0.023615152274100895
103 0.011703854252699635 0.011805944173572629
104 0.093721584326401652 0.094539095286585287
105 0.22292915236685371 0.22487371003427048
106 1.3074238904579072 1.3188282362949653
107 0.070271714815557967 0.070884678173630811
108 0.02341094420809434 0.023615152274100895
109 0.035121272551341752 0.035427627010164428
110 0.2935732903802124 0.29613405996416609
111 0.011703854252699635 0.011805944173572629
112 0.011703854252699635 0.011805944173572629
113 0.058551655160611844 0.059062387241964512
114 0.046834841971315398 0.047243371094091151
115 0.35253416286396166 0.35560923403408551
116 0.081995023636218176 0.082710246612706442
117 0.02341094420809434 0.023615152274100895
118 0.011703854252699635 0.011805944173572629
119 0.77952057992142576 0.7863201514646796
120 0.02341094420809434 0.023615152274100895
121 0.081995023636218176 0.082710246612706442
122 0.011703854252699635 0.011805944173572629
123 0.02341094420809434 0.023615152274100895
124 0.046834841971315398 0.047243371094091151
125 0.011703854252699635 0.011805944173572629
126 0.070271714815557967 0.070884678173630811
127 0.035121272551341752 0.035427627010164428
128 0.035121272551341752 0.035427627010164428
129 0.11718447214934276 0.11820664426725942
130 0.035121272551341752 0.035427627010164428
131 0.49437906638368506 0.49869141671534889
132 0.046834841971315398 0.047243371094091151
133 0.11718447214934276 0.11820664426725942
134 0.02341094420809434 0.023615152274100895
135 0.02341094420809434 0.023615152274100895
136 0.11718447214934276 0.11820664426725942
137 0.45887282104845806 0.46287545889579779
138 0.035121272551341752 0.035427627010164428
139 0.058551655160611844 0.059062387241964512
140 0.02341094420809434 0.023615152274100895
141 0.011703854252699635 0.011805944173572629
142 0.070271714815557967 0.070884678173630811
143 0.058551655160611844 0.059062387241964512
144 0.058551655160611844 0.059062387241964512
145 0.15240326071654292 0.15373263790216096
146 0.058551655160611844 0.059062387241964512
147 0.02341094420809434 0.023615152274100895
148 0.02341094420809434 0.023615152274100895
149 0.058551655160611844 0.059062387241964512
150 0.058551655160611844 0.059062387241964512
151 0.011703854252699635 0.011805944173572629
152 0.011703854252699635 0.011805944173572629
153 0.11718447214934276 0.11820664426725942
154 0.19940741265817993 0.20114679581694289
155 0.10545139959366964 0.10637122692644602
156 1.3678430966882174 1.3797744648078569
157 0.046834841971315398 0.047243371094091151
158 0.035121272551341752 0.035427627010164428
159 0.39976251614284464 0.40324954894074516
160 0.011703854252699635 0.011805944173572629
161 0.081995023636218176 0.082710246612706442
162 0.02341094420809434 0.023615152274100895
163 0.49437906638368506 0.49869141671534889
164 0.02341094420809434 0.023615152274100895
165 0.14066039999002747 0.14188734701063249
166 0.02341094420809434 0.023615152274100895
167 0.058551655160611844 0.059062387241964512
168 0.011703854252699635 0.011805944173572629
169 0.71995506718779012 0.72623506301261487
170 0.046834841971315398 0.047243371094091151
171 0.28179103056109672 0.28424902631117754
172 0.035121272551341752 0.035427627010164428
173 0.02341094420809434 0.023615152274100895
174 0.30535885138615809 0.30802242359944759
175 0.046834841971315398 0.047243371094091151
176 0.046834841971315398 0.047243371094091151
177 0.058551655160611844 0.059062387241964512
178 0.011703854252699635 0.011805944173572629
179 0.093721584326401652 0.094539095286585287
180 0.011703854252699635 0.011805944173572629
181 0.15240326071654292 0.15373263790216096
182 0.02341094420809434 0.023615152274100895
183 0.234694947761521 0.23674213564757471
184 0.046834841971315398 0.047243371094091151
185 0.02341094420809434 0.023615152274100895
186 0.64858874041615966 0.65424622484466977
187 0.10545139959366964 0.10637122692644602
188 0.24646403051934179 0.24861387729891488
189 0.19940741265817993 0.20114679581694289
190 0.17589878941408407 0.17743311247597598
191 0.081995023636218176 0.082710246612706442
192 0.73186135074636494 0.73824520223447321
193 0.14066039999002747 0.14188734701063249
194 0.24646403051934179 0.24861387729891488
195 0.16414938961448597 0.16558122547259463
196 0.51806663648028051 0.52258560781940233
197 0.38795044536512951 0.39133444429529674
198 0.55362315834743792 0.5584522807210448
199 0.011703854252699635 0.011805944173572629
200 0.31714771635529709 0.31991412001760294
201 0.02341094420809434 0.023615152274100895
202 0.83917155022096923 0.8464914429085566
203 0.19940741265817993 0.20114679581694289
204 0.081995023636218176 0.082710246612706442
205 0.046834841971315398 0.047243371094091151
206 0.12892080470850828 0.13004535004779583
207 0.19940741265817993 0.20114679581694289
208 0.25823640339732462 0.26048893776934806
209 0.070271714815557967 0.070884678173630811
210 0.058551655160611844 0.059062387241964512
211 0.22292915236685371 0.22487371003427048
212 0.38795044536512951 0.39133444429529674
213 0.38795044536512951 0.39133444429529674
214 0.058551655160611844 0.059062387241964512
215 0.046834841971315398 0.047243371094091151
216 0.081995023636218176 0.082710246612706442
217 0.046834841971315398 0.047243371094091151
218 0.035121272551341752 0.035427627010164428
219 0.011703854252699635 0.011805944173572629
220 0.25823640339732462 0.26048893776934806
221 0.070271714815557967 0.070884678173630811
222 0.02341094420809434 0.023615152274100895
223 0.070271714815557967 0.070884678173630811
224 0.32893988806788665 0.3318091520231411
225 0.12892080470850828 0.13004535004779583
226 0.046834841971315398 0.047243371094091151
227 0.02341094420809434 0.023615152274100895
228 0.25823640339732462 0.26048893776934806
229 0.046834841971315398 0.047243371094091151
230 0.02341094420809434 0.023615152274100895
231 0.011703854252699635 0.011805944173572629
232 0.035121272551341752 0.035427627010164428
233 0.011703854252699635 0.011805944173572629
234 0.11718447214934276 0.11820664426725942
235 0.18765146284936812 0.18928830167018429
236 1.4768226937300513 1.4897046648047989
237 0.011703854252699635 0.011805944173572629
238 0.070271714815557967 0.070884678173630811
239 0.18765146284936812 0.18928830167018429
240 0.47070489197036736 0.47481073814191394
241 0.046834841971315398 0.047243371094091151
242 0.02341094420809434 0.023615152274100895
243 0.011703854252699635 0.011805944173572629
244 0.011703854252699635 0.011805944173572629
245 0.30535885138615809 0.30802242359944759
246 0.12892080470850828 0.13004535004779583
247 0.02341094420809434 0.023615152274100895
248 0.046834841971315398 0.047243371094091151
249 0.21116664158217979 0.21300859768182687
250 0.011703854252699635 0.011805944173572629
251 0.17589878941408407 0.17743311247597598
252 0.11718447214934276 0.11820664426725942
253 0.035121272551341752 0.035427627010164428
254 0.10545139959366964 0.10637122692644602
255 0.070271714815557967 0.070884678173630811
256 0.035121272551341752 0.035427627010164428
257 0.046834841971315398 0.047243371094091151
258 0.02341094420809434 0.023615152274100895
259 0.093721584326401652 0.094539095286585287
260 0.18765146284936812 0.18928830167018429
261 0.035121272551341752 0.035427627010164428
262 0.24646403051934179 0.24861387729891488
263 0.011703854252699635 0.011805944173572629
264 0.070271714815557967 0.070884678173630811
265 0.02341094420809434 0.023615152274100895
266 0.10545139959366964 0.10637122692644602
267 0.18765146284936812 0.18928830167018429
268 0.18765146284936812 0.18928830167018429
269 0.081995023636218176 0.082710246612706442
270 0.11718447214934276 0.11820664426725942
271 0.058551655160611844 0.059062387241964512
272 0.02341094420809434 0.023615152274100895
273 0.22292915236685371 0.22487371003427048
274 0.02341094420809434 0.023615152274100895
275 0.046834841971315398 0.047243371094091151
276 0.035121272551341752 0.035427627010164428
277 0.16414938961448597 0.16558122547259463
278 0.11718447214934276 0.11820664426725942
279 0.011703854252699635 0.011805944173572629
280 0.093721584326401652 0.094539095286585287
281 0.046834841971315398 0.047243371094091151
282 0.011703854252699635 0.011805944173572629
283 0.046834841971315398 0.047243371094091151
284 0.10545139959366964 0.10637122692644602
285 0.035121272551341752 0.035427627010164428
286 0.43521869761623044 0.43901500620336442
287 0.12892080470850828 0.13004535004779583
288 0.058551655160611844 0.059062387241964512
289 0.19940741265817993 0.20114679581694289
290 0.081995023636218176 0.082710246612706442
291 0.093721584326401652 0.094539095286585287
292 0.058551655160611844 0.059062387241964512
293 0.22292915236685371 0.22487371003427048
294 0.035121272551341752 0.035427627010164428
295 0.14066039999002747 0.14188734701063249
296 0.011703854252699635 0.011805944173572629
297 0.011703854252699635 0.011805944173572629
298 0.17589878941408407 0.17743311247597598
299 0.070271714815557967 0.070884678173630811
300 0.070271714815557967 0.070884678173630811
301 0.02341094420809434 0.023615152274100895
302 0.011703854252699635 0.011805944173572629
303 0.02341094420809434 0.023615152274100895
304 0.02341094420809434 0.023615152274100895
305 0.046834841971315398 0.047243371094091151
306 0.011703854252699635 0.011805944173572629
307 0.070271714815557967 0.070884678173630811
308 0.046834841971315398 0.047243371094091151
309 0.011703854252699635 0.011805944173572629
310 0.011703854252699635 0.011805944173572629
311 0.058551655160611844 0.059062387241964512
312 0.070271714815557967 0.070884678173630811
313 0.035121272551341752 0.035427627010164428
314 0.02341094420809434 0.023615152274100895
315 0.035121272551341752 0.035427627010164428
316 0.011703854252699635 0.011805944173572629
317 0.011703854252699635 0.011805944173572629
318 0.035121272551341752 0.035427627010164428
319 0.011703854252699635 0.011805944173572629
320 0.011703854252699635 0.011805944173572629
321 0.15240326071654292 0.15373263790216096
322 0.16414938961448597 0.16558122547259463
323 0.070271714815557967 0.070884678173630811
324 0.046834841971315398 0.047243371094091151
325 0.081995023636218176 0.082710246612706442
326 0.046834841971315398 0.047243371094091151
327 0.035121272551341752 0.035427627010164428
328 0.28179103056109672 0.28424902631117754
329 0.070271714815557967 0.070884678173630811
330 0.10545139959366964 0.10637122692644602
331 0.011703854252699635 0.011805944173572629
332 0.070271714815557967 0.070884678173630811
333 0.070271714815557967 0.070884678173630811
334 0.02341094420809434 0.023615152274100895
335 0.093721584326401652 0.094539095286585287
336 0.14066039999002747 0.14188734701063249
337 0.24646403051934179 0.24861387729891488
338 0.011703854252699635 0.011805944173572629
339 0.046834841971315398 0.047243371094091151
340 0.070271714815557967 0.070884678173630811
341 0.011703854252699635 0.011805944173572629
342 0.011703854252699635 0.011805944173572629
343 0.02341094420809434 0.023615152274100895
344 0.02341094420809434 0.023615152274100895
345 0.081995023636218176 0.082710246612706442
346 0.02341094420809434 0.023615152274100895
347 0.011703854252699635 0.011805944173572629
348 0.02341094420809434 0.023615152274100895
349 0.046834841971315398 0.047243371094091151
350 0.02341094420809434 0.023615152274100895
351 0.011703854252699635 0.011805944173572629
352 0.058551655160611844 0.059062387241964512
353 0.011703854252699635 0.011805944173572629
354 0.02341094420809434 0.023615152274100895
355 0.035121272551341752 0.035427627010164428
356 0.011703854252699635 0.011805944173572629
357 0.070271714815557967 0.070884678173630811
358 0.011703854252699635 0.011805944173572629
359 0.070271714815557967 0.070884678173630811
360 0.12892080470850828 0.13004535004779583
361 0.12892080470850828 0.13004535004779583
362 0.046834841971315398 0.047243371094091151
363 0.058551655160611844 0.059062387241964512
364 0.046834841971315398 0.047243371094091151
365 0.02341094420809434 0.023615152274100895
366 0.02341094420809434 0.023615152274100895
367 0.011703854252699635 0.011805944173572629
368 0.02341094420809434 0.023615152274100895
369 0.011703854252699635 0.011805944173572629
370 0.035121272551341752 0.035427627010164428
371 0.035121272551341752 0.035427627010164428
372 0.011703854252699635 0.011805944173572629
373 0.011703854252699635 0.011805944173572629
374 0.035121272551341752 0.035427627010164428
375 0.02341094420809434 0.023615152274100895
376 0.046834841971315398 0.047243371094091151
377 0.035121272551341752 0.035427627010164428
378 0.011703854252699635 0.011805944173572629
379 0.011703854252699635 0.011805944173572629
380 0.011703854252699635 0.011805944173572629
381 0.02341094420809434 0.023615152274100895
382 0.011703854252699635 0.011805944173572629
383 0.02341094420809434 0.023615152274100895
384 0.02341094420809434 0.023615152274100895
385 0.011703854252699635 0.011805944173572629
386 0.02341094420809434 0.023615152274100895
387 0.02341094420809434 0.023615152274100895
388 0.011703854252699635 0.011805944173572629
389 0.011703854252699635 0.011805944173572629
390 0.035121272551341752 0.035427627010164428
391 0.02341094420809434 0.023615152274100895
392 0.02341094420809434 0.023615152274100895
393 0.011703854252699635 0.011805944173572629
394 0.02341094420809434 0.023615152274100895
395 0.011703854252699635 0.011805944173572629
396 0.02341094420809434 0.023615152274100895
397 0.011703854252699635 0.011805944173572629
398 0.02341094420809434 0.023615152274100895
399 0.011703854252699635 0.011805944173572629
400 0.035121272551341752 0.035427627010164428
401 0.046834841971315398 0.047243371094091151
402 0.011703854252699635 0.011805944173572629
403 0.035121272551341752 0.035427627010164428
404 0.02341094420809434 0.023615152274100895
405 0.011703854252699635 0.011805944173572629
406 0.011703854252699635 0.011805944173572629
407 0.046834841971315398 0.047243371094091151
408 0.011703854252699635 0.011805944173572629
409 0.011703854252699635 0.011805944173572629
410 0.02341094420809434 0.023615152274100895
411 0.011703854252699635 0.011805944173572629
412 0.011703854252699635 0.011805944173572629
413 0.02341094420809434 0.023615152274100895
414 0.011703854252699635 0.011805944173572629
415 0.011703854252699635 0.011805944173572629
416 0.011703854252699635 0.011805944173572629
