# #Node_id x y  #rho: ME:0.40306698343202607 AB:0.011281892053359832 B:1 W:0.17697881828316619 AW:0.010531210921466392
0 0.3288598348645298 0.068762433703146192
1 5.2779554705671146 1.1035858583415474
2 2.3630731017572235 0.49410308060942593
3 0.84481390784042287 0.17664504500315015
4 0.27164021867194954 0.056798187395650457
5 0.88508226113559885 0.18506489346209967
6 3.9937984179421222 0.83507704445150011
7 0.65492860954482901 0.13694127503491427
8 0.48331411999682555 0.10105781129448782
9 1.2362235969561868 0.25848624281826099
10 2.6356195556140327 0.55109075583609612
11 7.8928091503793203 1.6503346057998074
12 0.11475600257507325 0.023994727183260858
13 3.3125804587751659 0.69263883890441913
14 6.6827057996572039 1.3973099350848139
15 1.1894297668295966 0.24870195996985012
16 1.0983725693365824 0.22966249743290751
17 1.6968716858460424 0.35480473572822036
18 1.1434823193871286 0.23909465018726733
19 1.3817696359315939 0.28891896458838501
20 0.48331411999682555 0.10105781129448782
21 4.0845436467614773 0.85405127638570244
22 0.13941150734681235 0.029150031457444082
23 4.3645570315552922 0.91260023787809796
24 0.11475600257507325 0.023994727183260858
25 2.8512438330638439 0.59617637746282504
26 2.7782802691113746 0.58092017498041315
27 1.8092699739396796 0.37830648028322184
28 0.84481390784042287 0.17664504500315015
29 0.69140811116868273 0.14456889946940185
30 2.4972442833356627 0.52215739433235808
31 0.38865221950660916 0.08126462901257886
32 1.4831897960840035 0.31012525462230378
33 2.2330272488347238 0.46691134604069107
34 0.61917990418244195 0.12946645530368583
35 1.6968716858460424 0.35480473572822036
36 0.80532129947753106 0.16838739971960281
37 6.3101446416689804 1.3194098414565469
38 0.24397424966200673 0.05101341480199155
39 5.7213367311344321 1.1962939707430993
40 0.61917990418244195 0.12946645530368583
41 2.2330272488347238 0.46691134604069107
42 0.29993264100101463 0.06271394726795318
43 0.13941150734681235 0.029150031457444082
44 0.69140811116868273 0.14456889946940185
45 0.29993264100101463 0.06271394726795318
46 0.11475600257507325 0.023994727183260858
47 0.65492860954482901 0.13694127503491427
48 0.21692649994675836 0.045357907806495033
49 5.7213367311344321 1.1962939707430993
50 0.45108551551416548 0.094319021560568053
51 0.45108551551416548 0.094319021560568053
52 2.8512438330638439 0.59617637746282504
53 0.84481390784042287 0.17664504500315015
54 2.2975393356144784 0.4804004000994635
55 0.24397424966200673 0.05101341480199155
56 4.1765759418125601 0.87329462542407366
57 0.96798199720729161 0.2023986843398651
58 0.80532129947753106 0.16838739971960281
59 0.24397424966200673 0.05101341480199155
60 1.3817696359315939 0.28891896458838501
61 2.2975393356144784 0.4804004000994635
62 0.24397424966200673 0.05101341480199155
63 4.1765759418125601 0.87329462542407366
64 0.728627395598067 0.15235120763454604
65 2.9253105095401213 0.61166323353604823
66 1.9254650475587873 0.40260210777952954
67 0.76659545911827853 0.16029008059457495
68 0.13941150734681235 0.029150031457444082
69 0.13941150734681235 0.029150031457444082
70 2.1070303609893015 0.44056622350287306
71 0.65492860954482901 0.13694127503491427
72 0.16465314910817516 0.03442789313030311
73 0.067172247082693579 0.014045276123847174
74 0.45108551551416548 0.094319021560568053
75 1.4831897960840035 0.31012525462230378
76 1.8092699739396796 0.37830648028322184
77 1.8668885592272477 0.39035414841069899
78 0.35843020087338301 0.074945403213847822
79 1.2362235969561868 0.25848624281826099
80 0.044228619386858362 0.009247914113997547
81 0.29993264100101463 0.06271394726795318
82 4.2699090805509723 0.89280997234217441
83 0.29993264100101463 0.06271394726795318
84 0.41953444783792471 0.087721900327308241
85 0.044228619386858362 0.009247914113997547
86 0.11475600257507325 0.023994727183260858
87 0.19048882078027152 0.039829962559853931
88 0.16465314910817516 0.03442789313030311
89 0.021840369867329869 0.0045666780367785743
90 0.067172247082693579 0.014045276123847174
91 0.09067882519023919 0.018960347371066659
92 0.11475600257507325 0.023994727183260858
93 0.13941150734681235 0.029150031457444082
94 0.51622902109258983 0.10794010114717144
95 1.9850082373788638 0.41505219808673716
96 0.3288598348645298 0.068762433703146192
97 0.41953444783792471 0.087721900327308241
98 0.24397424966200673 0.05101341480199155
99 0.11475600257507325 0.023994727183260858
100 2.1070303609893015 0.44056622350287306
101 0.021840369867329869 0.0045666780367785743
102 0.044228619386858362 0.009247914113997547
103 0.021840369867329869 0.0045666780367785743
104 0.19048882078027152 0.039829962559853931
105 0.45108551551416548 0.094319021560568053
106 5.1708137230325715 1.081183221927404
107 0.13941150734681235 0.029150031457444082
108 0.021840369867329869 0.0045666780367785743
109 0.044228619386858362 0.009247914113997547
110 0.65492860954482901 0.13694127503491427
111 0.021840369867329869 0.0045666780367785743
112 0.021840369867329869 0.0045666780367785743
113 0.11475600257507325 0.023994727183260858
114 0.09067882519023919 0.018960347371066659
115 0.92613531496104118 0.19364881765322634
116 0.16465314910817516 0.03442789313030311
117 0.021840369867329869 0.0045666780367785743
118 0.021840369867329869 0.0045666780367785743
119 1.9254650475587873 0.40260210777952954
120 0.044228619386858362 0.009247914113997547
121 0.11475600257507325 0.023994727183260858
122 0.021840369867329869 0.0045666780367785743
123 0.044228619386858362 0.009247914113997547
124 0.09067882519023919 0.018960347371066659
125 0.021840369867329869 0.0045666780367785743
126 0.13941150734681235 0.029150031457444082
127 0.044228619386858362 0.009247914113997547
128 0.067172247082693579 0.014045276123847174
129 0.19048882078027152 0.039829962559853931
130 0.044228619386858362 0.009247914113997547
131 1.4831897960840035 0.31012525462230378
132 0.09067882519023919 0.018960347371066659
133 0.21692649994675836 0.045357907806495033
134 0.044228619386858362 0.009247914113997547
135 0.044228619386858362 0.009247914113997547
136 0.24397424966200673 0.05101341480199155
137 1.0106312025512649 0.21131635334059429
138 0.067172247082693579 0.014045276123847174
139 0.11475600257507325 0.023994727183260858
140 0.044228619386858362 0.009247914113997547
141 0.021840369867329869 0.0045666780367785743
142 0.13941150734681235 0.029150031457444082
143 0.11475600257507325 0.023994727183260858
144 0.09067882519023919 0.018960347371066659
145 0.29993264100101463 0.06271394726795318
146 0.11475600257507325 0.023994727183260858
147 0.044228619386858362 0.009247914113997547
148 0.044228619386858362 0.009247914113997547
149 0.09067882519023919 0.018960347371066659
150 0.11475600257507325 0.023994727183260858
151 0.021840369867329869 0.0045666780367785743
152 0.021840369867329869 0.0045666780367785743
153 0.24397424966200673 0.05101341480199155
154 0.41953444783792471 0.087721900327308241
155 0.19048882078027152 0.039829962559853931
156 3.8161150021788632 0.79792460805984988
157 0.09067882519023919 0.018960347371066659
158 0.067172247082693579 0.014045276123847174
159 0.96798199720729161 0.2023986843398651
160 0.021840369867329869 0.0045666780367785743
161 0.13941150734681235 0.029150031457444082
162 0.044228619386858362 0.009247914113997547
163 1.1434823193871286 0.23909465018726733
164 0.044228619386858362 0.009247914113997547
165 0.24397424966200673 0.05101341480199155
166 0.044228619386858362 0.009247914113997547
167 0.09067882519023919 0.018960347371066659
168 0.021840369867329869 0.0045666780367785743
169 1.5882011019938085 0.33208242967129298
170 0.09067882519023919 0.018960347371066659
171 0.61917990418244195 0.12946645530368583
172 0.067172247082693579 0.014045276123847174
173 0.044228619386858362 0.009247914113997547
174 0.61917990418244195 0.12946645530368583
175 0.067172247082693579 0.014045276123847174
176 0.09067882519023919 0.018960347371066659
177 0.09067882519023919 0.018960347371066659
178 0.021840369867329869 0.0045666780367785743
179 0.19048882078027152 0.039829962559853931
180 0.021840369867329869 0.0045666780367785743
181 0.3288598348645298 0.068762433703146192
182 0.044228619386858362 0.009247914113997547
183 0.51622902109258983 0.10794010114717144
184 0.09067882519023919 0.018960347371066659
185 0.044228619386858362 0.009247914113997547
186 1.6420747185556848 0.34334704941031063
187 0.13941150734681235 0.029150031457444082
188 0.45108551551416548 0.094319021560568053
189 0.35843020087338301 0.074945403213847822
190 0.38865221950660916 0.08126462901257886
191 0.16465314910817516 0.03442789313030311
192 1.9254650475587873 0.40260210777952954
193 0.29993264100101463 0.06271394726795318
194 0.5841530266315148 0.12214256503166052
195 0.3288598348645298 0.068762433703146192
196 1.2838724535983164 0.26844930610093226
197 0.80532129947753106 0.16838739971960281
198 1.3817696359315939 0.28891896458838501
199 0.021840369867329869 0.0045666780367785743
200 0.69140811116868273 0.14456889946940185
201 0.044228619386858362 0.009247914113997547
202 1.9850082373788638 0.41505219808673716
203 0.41953444783792471 0.087721900327308241
204 0.13941150734681235 0.029150031457444082
205 0.09067882519023919 0.018960347371066659
206 0.21692649994675836 0.045357907806495033
207 0.45108551551416548 0.094319021560568053
208 0.51622902109258983 0.10794010114717144
209 0.11475600257507325 0.023994727183260858
210 0.11475600257507325 0.023994727183260858
211 0.51622902109258983 0.10794010114717144
212 0.76659545911827853 0.16029008059457495
213 1.0106312025512649 0.21131635334059429
214 0.11475600257507325 0.023994727183260858
215 0.09067882519023919 0.018960347371066659
216 0.16465314910817516 0.03442789313030311
217 0.09067882519023919 0.018960347371066659
218 0.067172247082693579 0.014045276123847174
219 0.021840369867329869 0.0045666780367785743
220 0.5841530266315148 0.12214256503166052
221 0.11475600257507325 0.023994727183260858
222 0.044228619386858362 0.009247914113997547
223 0.13941150734681235 0.029150031457444082
224 0.84481390784042287 0.17664504500315015
225 0.27164021867194954 0.056798187395650457
226 0.067172247082693579 0.014045276123847174
227 0.044228619386858362 0.009247914113997547
228 0.48331411999682555 0.10105781129448782
229 0.067172247082693579 0.014045276123847174
230 0.044228619386858362 0.009247914113997547
231 0.021840369867329869 0.0045666780367785743
232 0.067172247082693579 0.014045276123847174
233 0.021840369867329869 0.0045666780367785743
234 0.24397424966200673 0.05101341480199155
235 0.41953444783792471 0.087721900327308241
236 6.1892177750439608 1.2941248270896781
237 0.021840369867329869 0.0045666780367785743
238 0.11475600257507325 0.023994727183260858
239 0.41953444783792471 0.087721900327308241
240 1.3323849424807876 0.27859294921846323
241 0.09067882519023919 0.018960347371066659
242 0.044228619386858362 0.009247914113997547
243 0.021840369867329869 0.0045666780367785743
244 0.021840369867329869 0.0045666780367785743
245 0.76659545911827853 0.16029008059457495
246 0.21692649994675836 0.045357907806495033
247 0.044228619386858362 0.009247914113997547
248 0.09067882519023919 0.018960347371066659
249 0.41953444783792471 0.087721900327308241
250 0.021840369867329869 0.0045666780367785743
251 0.38865221950660916 0.08126462901257886
252 0.24397424966200673 0.05101341480199155
253 0.067172247082693579 0.014045276123847174
254 0.21692649994675836 0.045357907806495033
255 0.09067882519023919 0.018960347371066659
256 0.067172247082693579 0.014045276123847174
257 0.067172247082693579 0.014045276123847174
258 0.044228619386858362 0.009247914113997547
259 0.13941150734681235 0.029150031457444082
260 0.38865221950660916 0.08126462901257886
261 0.067172247082693579 0.014045276123847174
262 0.54983903481446073 0.11496773448909134
263 0.021840369867329869 0.0045666780367785743
264 0.13941150734681235 0.029150031457444082
265 0.044228619386858362 0.009247914113997547
266 0.21692649994675836 0.045357907806495033
267 0.41953444783792471 0.087721900327308241
268 0.38865221950660916 0.08126462901257886
269 0.16465314910817516 0.03442789313030311
270 0.24397424966200673 0.05101341480199155
271 0.11475600257507325 0.023994727183260858
272 0.044228619386858362 0.009247914113997547
273 0.38865221950660916 0.08126462901257886
274 0.044228619386858362 0.009247914113997547
275 0.09067882519023919 0.018960347371066659
276 0.067172247082693579 0.014045276123847174
277 0.35843020087338301 0.074945403213847822
278 0.24397424966200673 0.05101341480199155
279 0.021840369867329869 0.0045666780367785743
280 0.16465314910817516 0.03442789313030311
281 0.09067882519023919 0.018960347371066659
282 0.021840369867329869 0.0045666780367785743
283 0.09067882519023919 0.018960347371066659
284 0.19048882078027152 0.039829962559853931
285 0.067172247082693579 0.014045276123847174
286 0.96798199720729161 0.2023986843398651
287 0.24397424966200673 0.05101341480199155
288 0.11475600257507325 0.023994727183260858
289 0.45108551551416548 0.094319021560568053
290 0.16465314910817516 0.03442789313030311
291 0.19048882078027152 0.039829962559853931
292 0.09067882519023919 0.018960347371066659
293 0.45108551551416548 0.094319021560568053
294 0.044228619386858362 0.009247914113997547
295 0.29993264100101463 0.06271394726795318
296 0.021840369867329869 0.0045666780367785743
297 0.021840369867329869 0.0045666780367785743
298 0.38865221950660916 0.08126462901257886
299 0.13941150734681235 0.029150031457444082
300 0.13941150734681235 0.029150031457444082
301 0.044228619386858362 0.009247914113997547
302 0.021840369867329869 0.0045666780367785743
303 0.044228619386858362 0.009247914113997547
304 0.044228619386858362 0.009247914113997547
305 0.09067882519023919 0.018960347371066659
306 0.021840369867329869 0.0045666780367785743
307 0.13941150734681235 0.029150031457444082
308 0.067172247082693579 0.014045276123847174
309 0.021840369867329869 0.0045666780367785743
310 0.021840369867329869 0.0045666780367785743
311 0.11475600257507325 0.023994727183260858
312 0.13941150734681235 0.029150031457444082
313 0.067172247082693579 0.014045276123847174
314 0.044228619386858362 0.009247914113997547
315 0.067172247082693579 0.014045276123847174
316 0.021840369867329869 0.0045666780367785743
317 0.021840369867329869 0.0045666780367785743
318 0.067172247082693579 0.014045276123847174
319 0.021840369867329869 0.0045666780367785743
320 0.021840369867329869 0.0045666780367785743
321 0.3288598348645298 0.068762433703146192
322 0.35843020087338301 0.074945403213847822
323 0.13941150734681235 0.029150031457444082
324 0.09067882519023919 0.018960347371066659
325 0.16465314910817516 0.03442789313030311
326 0.09067882519023919 0.018960347371066659
327 0.067172247082693579 0.014045276123847174
328 0.69140811116868273 0.14456889946940185
329 0.11475600257507325 0.023994727183260858
330 0.19048882078027152 0.039829962559853931
331 0.021840369867329869 0.0045666780367785743
332 0.13941150734681235 0.029150031457444082
333 0.13941150734681235 0.029150031457444082
334 0.044228619386858362 0.009247914113997547
335 0.16465314910817516 0.03442789313030311
336 0.27164021867194954 0.056798187395650457
337 0.5841530266315148 0.12214256503166052
338 0.021840369867329869 0.0045666780367785743
339 0.09067882519023919 0.018960347371066659
340 0.13941150734681235 0.029150031457444082
341 0.021840369867329869 0.0045666780367785743
342 0.021840369867329869 0.0045666780367785743
343 0.044228619386858362 0.009247914113997547
344 0.044228619386858362 0.009247914113997547
345 0.16465314910817516 0.03442789313030311
346 0.044228619386858362 0.009247914113997547
347 0.021840369867329869 0.0045666780367785743
348 0.044228619386858362 0.009247914113997547
349 0.09067882519023919 0.018960347371066659
350 0.044228619386858362 0.009247914113997547
351 0.021840369867329869 0.0045666780367785743
352 0.11475600257507325 0.023994727183260858
353 0.021840369867329869 0.0045666780367785743
354 0.044228619386858362 0.009247914113997547
355 0.067172247082693579 0.014045276123847174
356 0.021840369867329869 0.0045666780367785743
357 0.13941150734681235 0.029150031457444082
358 0.021840369867329869 0.0045666780367785743
359 0.13941150734681235 0.029150031457444082
360 0.24397424966200673 0.05101341480199155
361 0.27164021867194954 0.056798187395650457
362 0.09067882519023919 0.018960347371066659
363 0.11475600257507325 0.023994727183260858
364 0.09067882519023919 0.018960347371066659
365 0.044228619386858362 0.009247914113997547
366 0.044228619386858362 0.009247914113997547
367 0.021840369867329869 0.0045666780367785743
368 0.044228619386858362 0.009247914113997547
369 0.021840369867329869 0.0045666780367785743
370 0.067172247082693579 0.014045276123847174
371 0.067172247082693579 0.014045276123847174
372 0.021840369867329869 0.0045666780367785743
373 0.021840369867329869 0.0045666780367785743
374 0.067172247082693579 0.014045276123847174
375 0.044228619386858362 0.009247914113997547
376 0.09067882519023919 0.018960347371066659
377 0.067172247082693579 0.014045276123847174
378 0.021840369867329869 0.0045666780367785743
379 0.021840369867329869 0.0045666780367785743
380 0.021840369867329869 0.0045666780367785743
381 0.044228619386858362 0.009247914113997547
382 0.021840369867329869 0.0045666780367785743
383 0.044228619386858362 0.009247914113997547
384 0.044228619386858362 0.009247914113997547
385 0.021840369867329869 0.0045666780367785743
386 0.044228619386858362 0.009247914113997547
387 0.044228619386858362 0.009247914113997547
388 0.021840369867329869 0.0045666780367785743
389 0.021840369867329869 0.0045666780367785743
390 0.067172247082693579 0.014045276123847174
391 0.044228619386858362 0.009247914113997547
392 0.044228619386858362 0.009247914113997547
393 0.021840369867329869 0.0045666780367785743
394 0.044228619386858362 0.009247914113997547
395 0.021840369867329869 0.0045666780367785743
396 0.044228619386858362 0.009247914113997547
397 0.021840369867329869 0.0045666780367785743
398 0.044228619386858362 0.009247914113997547
399 0.021840369867329869 0.0045666780367785743
400 0.067172247082693579 0.014045276123847174
401 0.09067882519023919 0.018960347371066659
402 0.021840369867329869 0.0045666780367785743
403 0.067172247082693579 0.014045276123847174
404 0.044228619386858362 0.009247914113997547
405 0.021840369867329869 0.0045666780367785743
406 0.021840369867329869 0.0045666780367785743
407 0.09067882519023919 0.018960347371066659
408 0.021840369867329869 0.0045666780367785743
409 0.021840369867329869 0.0045666780367785743
410 0.044228619386858362 0.009247914113997547
411 0.021840369867329869 0.0045666780367785743
412 0.021840369867329869 0.0045666780367785743
413 0.044228619386858362 0.009247914113997547
414 0.021840369867329869 0.0045666780367785743
415 0.021840369867329869 0.0045666780367785743
416 0.021840369867329869 0.0045666780367785743
