# #Lamda: 0.83409413387769549 Node_id x y
0 0.02297701259787762 0.028205993250675819
1 0.02297701259787762 0.028205993250675819
2 0.22739968868241806 0.27915004428272322
3 0.068750966501000571 0.08439692883677076
4 0.045892831059677258 0.056336866144348859
5 0.02297701259787762 0.028205993250675819
6 0.02297701259787762 0.028205993250675819
7 0.02297701259787762 0.028205993250675819
8 0.02297701259787762 0.028205993250675819
9 0.02297701259787762 0.028205993250675819
10 0.02297701259787762 0.028205993250675819
11 0.02297701259787762 0.028205993250675819
12 0.02297701259787762 0.028205993250675819
13 0.045892831059677258 0.056336866144348859
14 0.02297701259787762 0.028205993250675819
15 0.02297701259787762 0.028205993250675819
16 0.091554747881685369 0.1123902678739314
17 0.045892831059677258 0.056336866144348859
18 0.02297701259787762 0.028205993250675819
19 0.02297701259787762 0.028205993250675819
20 0.02297701259787762 0.028205993250675819
21 0.068750966501000571 0.08439692883677076
22 0.02297701259787762 0.028205993250675819
23 0.045892831059677258 0.056336866144348859
24 0.02297701259787762 0.028205993250675819
25 0.02297701259787762 0.028205993250675819
26 0.02297701259787762 0.028205993250675819
27 0.045892831059677258 0.056336866144348859
28 0.02297701259787762 0.028205993250675819
29 0.02297701259787762 0.028205993250675819
30 0.18228655343328989 0.22377031278223222
31 0.02297701259787762 0.028205993250675819
32 0.045892831059677258 0.056336866144348859
33 0.02297701259787762 0.028205993250675819
34 0.02297701259787762 0.028205993250675819
35 0.02297701259787762 0.028205993250675819
36 0.045892831059677258 0.056336866144348859
37 0.02297701259787762 0.028205993250675819
38 0.02297701259787762 0.028205993250675819
39 0.02297701259787762 0.028205993250675819
40 0.045892831059677258 0.056336866144348859
41 0.02297701259787762 0.028205993250675819
42 0.02297701259787762 0.028205993250675819
43 0.045892831059677258 0.056336866144348859
44 0.02297701259787762 0.028205993250675819
45 0.02297701259787762 0.028205993250675819
46 0.02297701259787762 0.028205993250675819
47 0.02297701259787762 0.028205993250675819
48 0.02297701259787762 0.028205993250675819
49 0.02297701259787762 0.028205993250675819
50 0.02297701259787762 0.028205993250675819
51 0.02297701259787762 0.028205993250675819
52 0.02297701259787762 0.028205993250675819
53 0.068750966501000571 0.08439692883677076
54 0.13701165159164377 0.16819200074838175
55 0.02297701259787762 0.028205993250675819
56 0.02297701259787762 0.028205993250675819
57 0.02297701259787762 0.028205993250675819
58 0.02297701259787762 0.028205993250675819
59 0.02297701259787762 0.028205993250675819
60 0.02297701259787762 0.028205993250675819
61 0.02297701259787762 0.028205993250675819
62 0.15967052487778685 0.19600745431330524
63 0.02297701259787762 0.028205993250675819
64 0.02297701259787762 0.028205993250675819
65 0.02297701259787762 0.028205993250675819
66 0.02297701259787762 0.028205993250675819
67 0.02297701259787762 0.028205993250675819
68 0.02297701259787762 0.028205993250675819
69 0.02297701259787762 0.028205993250675819
70 0.02297701259787762 0.028205993250675819
71 0.045892831059677258 0.056336866144348859
72 0.02297701259787762 0.028205993250675819
73 0.02297701259787762 0.028205993250675819
74 0.02297701259787762 0.028205993250675819
75 0.02297701259787762 0.028205993250675819
76 0.02297701259787762 0.028205993250675819
77 0.02297701259787762 0.028205993250675819
78 0.02297701259787762 0.028205993250675819
79 0.02297701259787762 0.028205993250675819
80 0.02297701259787762 0.028205993250675819
81 0.02297701259787762 0.028205993250675819
82 0.045892831059677258 0.056336866144348859
83 0.47330839517836298 0.58102128564451427
84 0.02297701259787762 0.028205993250675819
85 0.02297701259787762 0.028205993250675819
86 0.02297701259787762 0.028205993250675819
87 0.02297701259787762 0.028205993250675819
88 0.02297701259787762 0.028205993250675819
89 0.02297701259787762 0.028205993250675819
90 0.02297701259787762 0.028205993250675819
91 0.02297701259787762 0.028205993250675819
92 0.02297701259787762 0.028205993250675819
93 0.091554747881685369 0.1123902678739314
94 0.02297701259787762 0.028205993250675819
95 0.02297701259787762 0.028205993250675819
96 0.02297701259787762 0.028205993250675819
97 0.02297701259787762 0.028205993250675819
98 0.045892831059677258 0.056336866144348859
99 0.02297701259787762 0.028205993250675819
100 0.02297701259787762 0.028205993250675819
101 0.02297701259787762 0.028205993250675819
102 0.02297701259787762 0.028205993250675819
103 0.02297701259787762 0.028205993250675819
104 0.068750966501000571 0.08439692883677076
105 0.02297701259787762 0.028205993250675819
106 0.02297701259787762 0.028205993250675819
107 0.02297701259787762 0.028205993250675819
108 0.02297701259787762 0.028205993250675819
109 0.045892831059677258 0.056336866144348859
110 0.02297701259787762 0.028205993250675819
111 0.02297701259787762 0.028205993250675819
112 0.091554747881685369 0.1123902678739314
113 0.02297701259787762 0.028205993250675819
114 0.02297701259787762 0.028205993250675819
115 0.13701165159164377 0.16819200074838175
116 0.02297701259787762 0.028205993250675819
117 0.02297701259787762 0.028205993250675819
118 0.02297701259787762 0.028205993250675819
119 0.02297701259787762 0.028205993250675819
120 0.02297701259787762 0.028205993250675819
121 0.02297701259787762 0.028205993250675819
122 0.02297701259787762 0.028205993250675819
123 0.02297701259787762 0.028205993250675819
124 0.045892831059677258 0.056336866144348859
125 0.02297701259787762 0.028205993250675819
126 0.02297701259787762 0.028205993250675819
127 0.02297701259787762 0.028205993250675819
128 0.02297701259787762 0.028205993250675819
129 0.02297701259787762 0.028205993250675819
130 0.02297701259787762 0.028205993250675819
131 0.02297701259787762 0.028205993250675819
132 0.02297701259787762 0.028205993250675819
133 0.02297701259787762 0.028205993250675819
134 0.02297701259787762 0.028205993250675819
135 0.02297701259787762 0.028205993250675819
136 0.02297701259787762 0.028205993250675819
137 0.045892831059677258 0.056336866144348859
138 0.02297701259787762 0.028205993250675819
139 0.02297701259787762 0.028205993250675819
140 0.20486218091066158 0.25148357592050885
141 0.02297701259787762 0.028205993250675819
142 0.045892831059677258 0.056336866144348859
143 0.02297701259787762 0.028205993250675819
144 0.02297701259787762 0.028205993250675819
145 0.02297701259787762 0.028205993250675819
146 0.02297701259787762 0.028205993250675819
147 0.02297701259787762 0.028205993250675819
148 0.045892831059677258 0.056336866144348859
149 0.02297701259787762 0.028205993250675819
150 0.02297701259787762 0.028205993250675819
151 0.02297701259787762 0.028205993250675819
152 0.02297701259787762 0.028205993250675819
153 0.02297701259787762 0.028205993250675819
154 0.02297701259787762 0.028205993250675819
155 0.02297701259787762 0.028205993250675819
156 0.13701165159164377 0.16819200074838175
157 0.045892831059677258 0.056336866144348859
158 0.091554747881685369 0.1123902678739314
159 0.02297701259787762 0.028205993250675819
160 0.02297701259787762 0.028205993250675819
161 0.02297701259787762 0.028205993250675819
162 0.045892831059677258 0.056336866144348859
163 0.068750966501000571 0.08439692883677076
164 0.02297701259787762 0.028205993250675819
165 0.02297701259787762 0.028205993250675819
166 0.02297701259787762 0.028205993250675819
167 0.02297701259787762 0.028205993250675819
168 0.02297701259787762 0.028205993250675819
169 0.02297701259787762 0.028205993250675819
170 0.02297701259787762 0.028205993250675819
171 0.045892831059677258 0.056336866144348859
172 0.02297701259787762 0.028205993250675819
173 0.02297701259787762 0.028205993250675819
174 0.02297701259787762 0.028205993250675819
175 0.02297701259787762 0.028205993250675819
176 0.045892831059677258 0.056336866144348859
177 0.02297701259787762 0.028205993250675819
178 0.02297701259787762 0.028205993250675819
179 0.02297701259787762 0.028205993250675819
180 0.068750966501000571 0.08439692883677076
181 0.02297701259787762 0.028205993250675819
182 0.02297701259787762 0.028205993250675819
183 0.02297701259787762 0.028205993250675819
184 0.045892831059677258 0.056336866144348859
185 0.02297701259787762 0.028205993250675819
186 0.15967052487778685 0.19600745431330524
187 0.02297701259787762 0.028205993250675819
188 0.02297701259787762 0.028205993250675819
189 0.02297701259787762 0.028205993250675819
190 0.02297701259787762 0.028205993250675819
191 0.02297701259787762 0.028205993250675819
192 0.02297701259787762 0.028205993250675819
193 0.02297701259787762 0.028205993250675819
194 0.02297701259787762 0.028205993250675819
195 0.02297701259787762 0.028205993250675819
196 0.045892831059677258 0.056336866144348859
197 0.02297701259787762 0.028205993250675819
198 0.045892831059677258 0.056336866144348859
199 0.02297701259787762 0.028205993250675819
200 0.02297701259787762 0.028205993250675819
201 0.02297701259787762 0.028205993250675819
202 0.045892831059677258 0.056336866144348859
203 0.02297701259787762 0.028205993250675819
204 0.045892831059677258 0.056336866144348859
205 0.13701165159164377 0.16819200074838175
206 0.02297701259787762 0.028205993250675819
207 0.02297701259787762 0.028205993250675819
208 0.02297701259787762 0.028205993250675819
209 0.02297701259787762 0.028205993250675819
210 0.11430732134811963 0.14032074538470352
211 0.02297701259787762 0.028205993250675819
212 0.045892831059677258 0.056336866144348859
213 0.068750966501000571 0.08439692883677076
214 0.02297701259787762 0.028205993250675819
215 0.02297701259787762 0.028205993250675819
216 0.02297701259787762 0.028205993250675819
217 0.02297701259787762 0.028205993250675819
218 0.045892831059677258 0.056336866144348859
219 0.02297701259787762 0.028205993250675819
220 0.045892831059677258 0.056336866144348859
221 0.18228655343328989 0.22377031278223222
222 0.02297701259787762 0.028205993250675819
223 0.02297701259787762 0.028205993250675819
224 0.02297701259787762 0.028205993250675819
225 0.02297701259787762 0.028205993250675819
226 0.02297701259787762 0.028205993250675819
227 0.02297701259787762 0.028205993250675819
228 0.02297701259787762 0.028205993250675819
229 0.045892831059677258 0.056336866144348859
230 0.02297701259787762 0.028205993250675819
231 0.02297701259787762 0.028205993250675819
232 0.02297701259787762 0.028205993250675819
233 0.02297701259787762 0.028205993250675819
234 0.02297701259787762 0.028205993250675819
235 0.045892831059677258 0.056336866144348859
236 0.02297701259787762 0.028205993250675819
237 0.02297701259787762 0.028205993250675819
238 0.068750966501000571 0.08439692883677076
239 0.02297701259787762 0.028205993250675819
240 0.02297701259787762 0.028205993250675819
241 0.02297701259787762 0.028205993250675819
242 0.02297701259787762 0.028205993250675819
243 0.045892831059677258 0.056336866144348859
244 0.02297701259787762 0.028205993250675819
245 0.02297701259787762 0.028205993250675819
246 0.02297701259787762 0.028205993250675819
247 0.068750966501000571 0.08439692883677076
248 0.02297701259787762 0.028205993250675819
249 0.068750966501000571 0.08439692883677076
250 0.02297701259787762 0.028205993250675819
251 0.02297701259787762 0.028205993250675819
252 0.068750966501000571 0.08439692883677076
253 0.02297701259787762 0.028205993250675819
254 0.045892831059677258 0.056336866144348859
255 0.02297701259787762 0.028205993250675819
256 0.02297701259787762 0.028205993250675819
257 0.02297701259787762 0.028205993250675819
258 0.02297701259787762 0.028205993250675819
259 0.02297701259787762 0.028205993250675819
260 0.068750966501000571 0.08439692883677076
261 0.02297701259787762 0.028205993250675819
262 0.045892831059677258 0.056336866144348859
263 0.02297701259787762 0.028205993250675819
264 0.02297701259787762 0.028205993250675819
265 0.02297701259787762 0.028205993250675819
266 0.02297701259787762 0.028205993250675819
267 0.068750966501000571 0.08439692883677076
268 0.02297701259787762 0.028205993250675819
269 0.02297701259787762 0.028205993250675819
270 0.02297701259787762 0.028205993250675819
271 0.02297701259787762 0.028205993250675819
272 0.02297701259787762 0.028205993250675819
273 0.02297701259787762 0.028205993250675819
274 0.02297701259787762 0.028205993250675819
275 0.02297701259787762 0.028205993250675819
276 0.068750966501000571 0.08439692883677076
277 0.02297701259787762 0.028205993250675819
278 0.02297701259787762 0.028205993250675819
279 0.02297701259787762 0.028205993250675819
280 0.02297701259787762 0.028205993250675819
281 0.091554747881685369 0.1123902678739314
282 0.02297701259787762 0.028205993250675819
283 0.13701165159164377 0.16819200074838175
284 0.02297701259787762 0.028205993250675819
285 0.02297701259787762 0.028205993250675819
286 0.02297701259787762 0.028205993250675819
287 0.045892831059677258 0.056336866144348859
288 0.02297701259787762 0.028205993250675819
289 0.045892831059677258 0.056336866144348859
290 0.02297701259787762 0.028205993250675819
291 0.02297701259787762 0.028205993250675819
292 0.02297701259787762 0.028205993250675819
293 0.045892831059677258 0.056336866144348859
294 0.02297701259787762 0.028205993250675819
295 0.068750966501000571 0.08439692883677076
296 0.02297701259787762 0.028205993250675819
297 0.068750966501000571 0.08439692883677076
298 0.02297701259787762 0.028205993250675819
299 0.068750966501000571 0.08439692883677076
300 0.02297701259787762 0.028205993250675819
301 0.045892831059677258 0.056336866144348859
302 0.02297701259787762 0.028205993250675819
303 0.02297701259787762 0.028205993250675819
304 0.15967052487778685 0.19600745431330524
305 0.02297701259787762 0.028205993250675819
306 0.045892831059677258 0.056336866144348859
307 0.045892831059677258 0.056336866144348859
308 0.02297701259787762 0.028205993250675819
309 0.02297701259787762 0.028205993250675819
310 0.02297701259787762 0.028205993250675819
311 0.02297701259787762 0.028205993250675819
312 0.02297701259787762 0.028205993250675819
313 0.02297701259787762 0.028205993250675819
314 0.02297701259787762 0.028205993250675819
315 0.02297701259787762 0.028205993250675819
316 0.02297701259787762 0.028205993250675819
317 0.02297701259787762 0.028205993250675819
318 0.02297701259787762 0.028205993250675819
319 0.02297701259787762 0.028205993250675819
320 0.27236870106830768 0.33435285424084288
321 0.045892831059677258 0.056336866144348859
322 0.02297701259787762 0.028205993250675819
323 0.02297701259787762 0.028205993250675819
324 0.02297701259787762 0.028205993250675819
325 0.89244587550285825 1.0955437411107074
326 0.13701165159164377 0.16819200074838175
327 0.02297701259787762 0.028205993250675819
328 0.02297701259787762 0.028205993250675819
329 0.02297701259787762 0.028205993250675819
330 0.02297701259787762 0.028205993250675819
331 0.068750966501000571 0.08439692883677076
332 0.02297701259787762 0.028205993250675819
333 0.02297701259787762 0.028205993250675819
334 0.02297701259787762 0.028205993250675819
335 0.02297701259787762 0.028205993250675819
336 0.02297701259787762 0.028205993250675819
337 0.02297701259787762 0.028205993250675819
338 0.11430732134811963 0.14032074538470352
339 0.02297701259787762 0.028205993250675819
340 0.02297701259787762 0.028205993250675819
341 0.02297701259787762 0.028205993250675819
342 0.02297701259787762 0.028205993250675819
343 0.02297701259787762 0.028205993250675819
344 0.02297701259787762 0.028205993250675819
345 0.02297701259787762 0.028205993250675819
346 0.02297701259787762 0.028205993250675819
347 0.15967052487778685 0.19600745431330524
348 0.02297701259787762 0.028205993250675819
349 0.02297701259787762 0.028205993250675819
350 0.02297701259787762 0.028205993250675819
351 0.045892831059677258 0.056336866144348859
352 0.02297701259787762 0.028205993250675819
353 0.02297701259787762 0.028205993250675819
354 0.02297701259787762 0.028205993250675819
355 0.045892831059677258 0.056336866144348859
356 0.02297701259787762 0.028205993250675819
357 0.02297701259787762 0.028205993250675819
358 0.02297701259787762 0.028205993250675819
359 0.091554747881685369 0.1123902678739314
360 0.091554747881685369 0.1123902678739314
361 0.02297701259787762 0.028205993250675819
362 0.045892831059677258 0.056336866144348859
363 0.045892831059677258 0.056336866144348859
364 0.02297701259787762 0.028205993250675819
365 0.02297701259787762 0.028205993250675819
366 0.02297701259787762 0.028205993250675819
367 0.02297701259787762 0.028205993250675819
368 0.02297701259787762 0.028205993250675819
369 0.02297701259787762 0.028205993250675819
370 0.13701165159164377 0.16819200074838175
371 0.02297701259787762 0.028205993250675819
372 0.02297701259787762 0.028205993250675819
373 0.02297701259787762 0.028205993250675819
374 0.02297701259787762 0.028205993250675819
375 0.045892831059677258 0.056336866144348859
376 0.18228655343328989 0.22377031278223222
377 0.13701165159164377 0.16819200074838175
378 0.091554747881685369 0.1123902678739314
379 0.02297701259787762 0.028205993250675819
380 0.02297701259787762 0.028205993250675819
381 0.11430732134811963 0.14032074538470352
382 0.02297701259787762 0.028205993250675819
383 0.02297701259787762 0.028205993250675819
384 0.045892831059677258 0.056336866144348859
385 0.02297701259787762 0.028205993250675819
386 0.02297701259787762 0.028205993250675819
387 0.02297701259787762 0.028205993250675819
388 0.02297701259787762 0.028205993250675819
389 0.045892831059677258 0.056336866144348859
390 0.068750966501000571 0.08439692883677076
391 0.02297701259787762 0.028205993250675819
392 0.02297701259787762 0.028205993250675819
393 0.02297701259787762 0.028205993250675819
394 0.02297701259787762 0.028205993250675819
395 0.068750966501000571 0.08439692883677076
396 0.02297701259787762 0.028205993250675819
397 0.02297701259787762 0.028205993250675819
398 0.02297701259787762 0.028205993250675819
399 0.02297701259787762 0.028205993250675819
400 0.02297701259787762 0.028205993250675819
401 0.02297701259787762 0.028205993250675819
402 0.02297701259787762 0.028205993250675819
403 0.02297701259787762 0.028205993250675819
404 0.02297701259787762 0.028205993250675819
405 0.02297701259787762 0.028205993250675819
406 0.02297701259787762 0.028205993250675819
407 0.02297701259787762 0.028205993250675819
408 0.045892831059677258 0.056336866144348859
409 0.02297701259787762 0.028205993250675819
410 0.068750966501000571 0.08439692883677076
411 0.02297701259787762 0.028205993250675819
412 0.02297701259787762 0.028205993250675819
413 0.15967052487778685 0.19600745431330524
414 0.02297701259787762 0.028205993250675819
415 0.80463948657177409 0.98775486285660374
416 0.02297701259787762 0.028205993250675819
417 0.02297701259787762 0.028205993250675819
418 0.068750966501000571 0.08439692883677076
419 0.02297701259787762 0.028205993250675819
420 0.02297701259787762 0.028205993250675819
421 0.02297701259787762 0.028205993250675819
422 0.02297701259787762 0.028205993250675819
423 0.02297701259787762 0.028205993250675819
424 0.02297701259787762 0.028205993250675819
425 0.20486218091066158 0.25148357592050885
426 0.02297701259787762 0.028205993250675819
427 0.02297701259787762 0.028205993250675819
428 0.15967052487778685 0.19600745431330524
429 0.11430732134811963 0.14032074538470352
430 0.02297701259787762 0.028205993250675819
431 0.045892831059677258 0.056336866144348859
432 0.02297701259787762 0.028205993250675819
433 0.02297701259787762 0.028205993250675819
434 0.045892831059677258 0.056336866144348859
435 0.02297701259787762 0.028205993250675819
436 0.02297701259787762 0.028205993250675819
437 0.02297701259787762 0.028205993250675819
438 0.045892831059677258 0.056336866144348859
439 0.02297701259787762 0.028205993250675819
440 0.045892831059677258 0.056336866144348859
441 0.02297701259787762 0.028205993250675819
442 0.02297701259787762 0.028205993250675819
443 0.02297701259787762 0.028205993250675819
444 0.068750966501000571 0.08439692883677076
445 0.045892831059677258 0.056336866144348859
446 0.02297701259787762 0.028205993250675819
447 0.15967052487778685 0.19600745431330524
448 0.02297701259787762 0.028205993250675819
449 0.045892831059677258 0.056336866144348859
450 0.02297701259787762 0.028205993250675819
451 0.02297701259787762 0.028205993250675819
452 0.02297701259787762 0.028205993250675819
453 0.02297701259787762 0.028205993250675819
454 0.045892831059677258 0.056336866144348859
455 0.045892831059677258 0.056336866144348859
456 0.02297701259787762 0.028205993250675819
457 0.02297701259787762 0.028205993250675819
458 0.068750966501000571 0.08439692883677076
459 0.02297701259787762 0.028205993250675819
460 0.02297701259787762 0.028205993250675819
461 0.02297701259787762 0.028205993250675819
462 0.02297701259787762 0.028205993250675819
463 0.02297701259787762 0.028205993250675819
464 0.02297701259787762 0.028205993250675819
465 0.02297701259787762 0.028205993250675819
466 0.02297701259787762 0.028205993250675819
467 0.02297701259787762 0.028205993250675819
468 0.02297701259787762 0.028205993250675819
469 0.091554747881685369 0.1123902678739314
470 0.02297701259787762 0.028205993250675819
471 0.02297701259787762 0.028205993250675819
472 0.02297701259787762 0.028205993250675819
473 0.02297701259787762 0.028205993250675819
474 0.02297701259787762 0.028205993250675819
475 0.02297701259787762 0.028205993250675819
476 0.045892831059677258 0.056336866144348859
477 0.02297701259787762 0.028205993250675819
478 0.045892831059677258 0.056336866144348859
479 0.02297701259787762 0.028205993250675819
480 0.045892831059677258 0.056336866144348859
481 0.045892831059677258 0.056336866144348859
482 0.02297701259787762 0.028205993250675819
483 0.02297701259787762 0.028205993250675819
484 0.02297701259787762 0.028205993250675819
485 0.02297701259787762 0.028205993250675819
486 0.02297701259787762 0.028205993250675819
487 0.02297701259787762 0.028205993250675819
488 0.02297701259787762 0.028205993250675819
489 0.045892831059677258 0.056336866144348859
490 0.02297701259787762 0.028205993250675819
491 0.02297701259787762 0.028205993250675819
492 0.02297701259787762 0.028205993250675819
493 0.02297701259787762 0.028205993250675819
494 0.045892831059677258 0.056336866144348859
495 0.02297701259787762 0.028205993250675819
496 0.02297701259787762 0.028205993250675819
497 0.068750966501000571 0.08439692883677076
498 0.02297701259787762 0.028205993250675819
499 0.045892831059677258 0.056336866144348859
500 0.02297701259787762 0.028205993250675819
501 0.02297701259787762 0.028205993250675819
502 0.045892831059677258 0.056336866144348859
503 0.02297701259787762 0.028205993250675819
504 0.045892831059677258 0.056336866144348859
505 0.02297701259787762 0.028205993250675819
506 0.02297701259787762 0.028205993250675819
507 0.02297701259787762 0.028205993250675819
508 0.068750966501000571 0.08439692883677076
509 0.02297701259787762 0.028205993250675819
510 0.02297701259787762 0.028205993250675819
511 0.02297701259787762 0.028205993250675819
512 0.02297701259787762 0.028205993250675819
513 0.068750966501000571 0.08439692883677076
514 0.02297701259787762 0.028205993250675819
515 0.02297701259787762 0.028205993250675819
516 0.33958482092387227 0.41686564457450581
517 0.045892831059677258 0.056336866144348859
518 0.20486218091066158 0.25148357592050885
519 0.045892831059677258 0.056336866144348859
520 0.02297701259787762 0.028205993250675819
521 0.02297701259787762 0.028205993250675819
522 0.02297701259787762 0.028205993250675819
523 0.02297701259787762 0.028205993250675819
524 0.02297701259787762 0.028205993250675819
525 0.02297701259787762 0.028205993250675819
526 0.02297701259787762 0.028205993250675819
527 0.02297701259787762 0.028205993250675819
528 0.02297701259787762 0.028205993250675819
529 0.02297701259787762 0.028205993250675819
530 0.02297701259787762 0.028205993250675819
531 0.02297701259787762 0.028205993250675819
532 0.02297701259787762 0.028205993250675819
533 0.02297701259787762 0.028205993250675819
534 0.02297701259787762 0.028205993250675819
535 0.02297701259787762 0.028205993250675819
536 0.02297701259787762 0.028205993250675819
537 0.02297701259787762 0.028205993250675819
538 0.045892831059677258 0.056336866144348859
539 0.068750966501000571 0.08439692883677076
540 0.02297701259787762 0.028205993250675819
541 0.02297701259787762 0.028205993250675819
542 0.02297701259787762 0.028205993250675819
543 0.02297701259787762 0.028205993250675819
544 0.02297701259787762 0.028205993250675819
545 0.068750966501000571 0.08439692883677076
546 0.02297701259787762 0.028205993250675819
547 0.02297701259787762 0.028205993250675819
548 0.068750966501000571 0.08439692883677076
549 0.02297701259787762 0.028205993250675819
550 0.02297701259787762 0.028205993250675819
551 0.02297701259787762 0.028205993250675819
552 0.02297701259787762 0.028205993250675819
553 0.18228655343328989 0.22377031278223222
554 0.02297701259787762 0.028205993250675819
555 0.02297701259787762 0.028205993250675819
556 0.02297701259787762 0.028205993250675819
557 0.11430732134811963 0.14032074538470352
558 0.02297701259787762 0.028205993250675819
559 0.02297701259787762 0.028205993250675819
560 0.045892831059677258 0.056336866144348859
561 0.13701165159164377 0.16819200074838175
562 0.02297701259787762 0.028205993250675819
563 0.02297701259787762 0.028205993250675819
564 0.02297701259787762 0.028205993250675819
565 0.02297701259787762 0.028205993250675819
566 0.045892831059677258 0.056336866144348859
567 0.045892831059677258 0.056336866144348859
568 0.02297701259787762 0.028205993250675819
569 0.02297701259787762 0.028205993250675819
570 0.02297701259787762 0.028205993250675819
571 0.02297701259787762 0.028205993250675819
572 0.02297701259787762 0.028205993250675819
573 0.02297701259787762 0.028205993250675819
574 0.045892831059677258 0.056336866144348859
575 0.02297701259787762 0.028205993250675819
576 0.02297701259787762 0.028205993250675819
577 0.045892831059677258 0.056336866144348859
578 0.045892831059677258 0.056336866144348859
579 0.02297701259787762 0.028205993250675819
580 0.02297701259787762 0.028205993250675819
581 0.045892831059677258 0.056336866144348859
582 0.068750966501000571 0.08439692883677076
583 0.02297701259787762 0.028205993250675819
584 0.02297701259787762 0.028205993250675819
585 0.091554747881685369 0.1123902678739314
586 0.02297701259787762 0.028205993250675819
587 0.02297701259787762 0.028205993250675819
588 0.02297701259787762 0.028205993250675819
589 0.02297701259787762 0.028205993250675819
590 0.02297701259787762 0.028205993250675819
591 0.045892831059677258 0.056336866144348859
592 0.02297701259787762 0.028205993250675819
593 0.02297701259787762 0.028205993250675819
594 0.02297701259787762 0.028205993250675819
595 0.02297701259787762 0.028205993250675819
596 0.02297701259787762 0.028205993250675819
597 0.02297701259787762 0.028205993250675819
598 0.02297701259787762 0.028205993250675819
599 0.02297701259787762 0.028205993250675819
600 0.02297701259787762 0.028205993250675819
601 0.068750966501000571 0.08439692883677076
602 0.02297701259787762 0.028205993250675819
603 0.13701165159164377 0.16819200074838175
604 0.02297701259787762 0.028205993250675819
605 0.02297701259787762 0.028205993250675819
606 0.02297701259787762 0.028205993250675819
607 0.02297701259787762 0.028205993250675819
608 0.02297701259787762 0.028205993250675819
609 0.02297701259787762 0.028205993250675819
610 0.045892831059677258 0.056336866144348859
611 0.02297701259787762 0.028205993250675819
612 0.045892831059677258 0.056336866144348859
613 0.02297701259787762 0.028205993250675819
614 0.068750966501000571 0.08439692883677076
615 0.045892831059677258 0.056336866144348859
616 0.02297701259787762 0.028205993250675819
617 0.045892831059677258 0.056336866144348859
618 0.02297701259787762 0.028205993250675819
619 0.045892831059677258 0.056336866144348859
620 0.02297701259787762 0.028205993250675819
621 0.02297701259787762 0.028205993250675819
622 0.02297701259787762 0.028205993250675819
623 0.02297701259787762 0.028205993250675819
624 0.18228655343328989 0.22377031278223222
625 0.02297701259787762 0.028205993250675819
626 0.02297701259787762 0.028205993250675819
627 0.02297701259787762 0.028205993250675819
628 0.045892831059677258 0.056336866144348859
629 0.02297701259787762 0.028205993250675819
630 0.045892831059677258 0.056336866144348859
631 0.02297701259787762 0.028205993250675819
632 0.02297701259787762 0.028205993250675819
633 0.02297701259787762 0.028205993250675819
634 0.02297701259787762 0.028205993250675819
635 0.02297701259787762 0.028205993250675819
636 0.02297701259787762 0.028205993250675819
637 0.02297701259787762 0.028205993250675819
638 0.02297701259787762 0.028205993250675819
639 0.02297701259787762 0.028205993250675819
640 0.02297701259787762 0.028205993250675819
641 0.02297701259787762 0.028205993250675819
642 0.02297701259787762 0.028205993250675819
643 0.02297701259787762 0.028205993250675819
644 0.02297701259787762 0.028205993250675819
645 0.02297701259787762 0.028205993250675819
646 0.045892831059677258 0.056336866144348859
647 0.02297701259787762 0.028205993250675819
648 0.02297701259787762 0.028205993250675819
649 0.045892831059677258 0.056336866144348859
650 0.02297701259787762 0.028205993250675819
651 0.045892831059677258 0.056336866144348859
652 0.02297701259787762 0.028205993250675819
653 0.02297701259787762 0.028205993250675819
654 0.02297701259787762 0.028205993250675819
655 0.02297701259787762 0.028205993250675819
656 0.045892831059677258 0.056336866144348859
657 0.02297701259787762 0.028205993250675819
658 0.02297701259787762 0.028205993250675819
659 0.02297701259787762 0.028205993250675819
660 0.045892831059677258 0.056336866144348859
661 0.02297701259787762 0.028205993250675819
662 0.045892831059677258 0.056336866144348859
663 0.24990120274832278 0.30677232769181567
664 0.02297701259787762 0.028205993250675819
665 0.02297701259787762 0.028205993250675819
666 0.20486218091066158 0.25148357592050885
667 0.02297701259787762 0.028205993250675819
668 0.045892831059677258 0.056336866144348859
669 0.02297701259787762 0.028205993250675819
670 0.068750966501000571 0.08439692883677076
671 0.068750966501000571 0.08439692883677076
672 0.045892831059677258 0.056336866144348859
673 0.02297701259787762 0.028205993250675819
674 0.02297701259787762 0.028205993250675819
675 0.02297701259787762 0.028205993250675819
676 0.02297701259787762 0.028205993250675819
677 0.02297701259787762 0.028205993250675819
678 0.045892831059677258 0.056336866144348859
679 0.02297701259787762 0.028205993250675819
680 0.02297701259787762 0.028205993250675819
681 0.02297701259787762 0.028205993250675819
682 0.02297701259787762 0.028205993250675819
683 0.02297701259787762 0.028205993250675819
684 0.068750966501000571 0.08439692883677076
685 0.045892831059677258 0.056336866144348859
686 0.045892831059677258 0.056336866144348859
687 0.18228655343328989 0.22377031278223222
688 0.02297701259787762 0.028205993250675819
689 0.045892831059677258 0.056336866144348859
690 0.02297701259787762 0.028205993250675819
691 0.02297701259787762 0.028205993250675819
692 0.02297701259787762 0.028205993250675819
693 0.02297701259787762 0.028205993250675819
694 0.02297701259787762 0.028205993250675819
695 0.02297701259787762 0.028205993250675819
696 0.02297701259787762 0.028205993250675819
697 0.02297701259787762 0.028205993250675819
698 0.02297701259787762 0.028205993250675819
699 0.02297701259787762 0.028205993250675819
700 0.02297701259787762 0.028205993250675819
701 0.02297701259787762 0.028205993250675819
702 0.068750966501000571 0.08439692883677076
703 0.02297701259787762 0.028205993250675819
704 0.045892831059677258 0.056336866144348859
705 0.02297701259787762 0.028205993250675819
706 0.02297701259787762 0.028205993250675819
707 0.045892831059677258 0.056336866144348859
708 0.02297701259787762 0.028205993250675819
709 0.02297701259787762 0.028205993250675819
710 0.02297701259787762 0.028205993250675819
711 0.02297701259787762 0.028205993250675819
712 0.11430732134811963 0.14032074538470352
713 0.02297701259787762 0.028205993250675819
714 0.02297701259787762 0.028205993250675819
715 0.045892831059677258 0.056336866144348859
716 0.02297701259787762 0.028205993250675819
717 0.02297701259787762 0.028205993250675819
718 0.045892831059677258 0.056336866144348859
719 0.091554747881685369 0.1123902678739314
720 0.02297701259787762 0.028205993250675819
721 0.02297701259787762 0.028205993250675819
722 0.02297701259787762 0.028205993250675819
723 0.02297701259787762 0.028205993250675819
724 0.045892831059677258 0.056336866144348859
725 0.045892831059677258 0.056336866144348859
726 0.02297701259787762 0.028205993250675819
727 0.02297701259787762 0.028205993250675819
728 0.045892831059677258 0.056336866144348859
729 0.02297701259787762 0.028205993250675819
730 0.02297701259787762 0.028205993250675819
731 0.02297701259787762 0.028205993250675819
732 0.02297701259787762 0.028205993250675819
733 0.02297701259787762 0.028205993250675819
734 0.11430732134811963 0.14032074538470352
735 0.045892831059677258 0.056336866144348859
736 0.02297701259787762 0.028205993250675819
737 0.02297701259787762 0.028205993250675819
738 0.02297701259787762 0.028205993250675819
739 0.068750966501000571 0.08439692883677076
740 0.02297701259787762 0.028205993250675819
741 0.02297701259787762 0.028205993250675819
742 0.02297701259787762 0.028205993250675819
743 0.02297701259787762 0.028205993250675819
744 0.02297701259787762 0.028205993250675819
745 0.045892831059677258 0.056336866144348859
746 0.02297701259787762 0.028205993250675819
747 0.045892831059677258 0.056336866144348859
748 0.02297701259787762 0.028205993250675819
749 0.02297701259787762 0.028205993250675819
750 0.02297701259787762 0.028205993250675819
751 0.29480402116098414 0.36189387962066338
752 0.02297701259787762 0.028205993250675819
753 0.02297701259787762 0.028205993250675819
754 0.068750966501000571 0.08439692883677076
755 0.02297701259787762 0.028205993250675819
756 0.02297701259787762 0.028205993250675819
757 0.02297701259787762 0.028205993250675819
758 0.045892831059677258 0.056336866144348859
759 0.02297701259787762 0.028205993250675819
760 0.02297701259787762 0.028205993250675819
761 0.02297701259787762 0.028205993250675819
762 0.02297701259787762 0.028205993250675819
763 0.02297701259787762 0.028205993250675819
764 0.02297701259787762 0.028205993250675819
765 0.02297701259787762 0.028205993250675819
766 0.045892831059677258 0.056336866144348859
767 0.02297701259787762 0.028205993250675819
768 0.02297701259787762 0.028205993250675819
769 0.18228655343328989 0.22377031278223222
770 0.02297701259787762 0.028205993250675819
771 0.02297701259787762 0.028205993250675819
772 0.02297701259787762 0.028205993250675819
773 0.02297701259787762 0.028205993250675819
774 0.02297701259787762 0.028205993250675819
775 0.11430732134811963 0.14032074538470352
776 0.02297701259787762 0.028205993250675819
777 0.02297701259787762 0.028205993250675819
778 0.02297701259787762 0.028205993250675819
779 0.02297701259787762 0.028205993250675819
780 0.045892831059677258 0.056336866144348859
781 0.02297701259787762 0.028205993250675819
782 0.045892831059677258 0.056336866144348859
783 0.15967052487778685 0.19600745431330524
784 0.02297701259787762 0.028205993250675819
785 0.02297701259787762 0.028205993250675819
786 0.02297701259787762 0.028205993250675819
787 0.02297701259787762 0.028205993250675819
788 0.045892831059677258 0.056336866144348859
789 0.02297701259787762 0.028205993250675819
790 0.02297701259787762 0.028205993250675819
791 0.02297701259787762 0.028205993250675819
792 0.13701165159164377 0.16819200074838175
793 0.02297701259787762 0.028205993250675819
794 0.045892831059677258 0.056336866144348859
795 0.02297701259787762 0.028205993250675819
796 0.02297701259787762 0.028205993250675819
797 0.13701165159164377 0.16819200074838175
798 0.02297701259787762 0.028205993250675819
799 0.091554747881685369 0.1123902678739314
800 0.045892831059677258 0.056336866144348859
801 0.02297701259787762 0.028205993250675819
802 0.02297701259787762 0.028205993250675819
803 0.02297701259787762 0.028205993250675819
804 0.02297701259787762 0.028205993250675819
805 0.02297701259787762 0.028205993250675819
806 0.02297701259787762 0.028205993250675819
807 0.02297701259787762 0.028205993250675819
808 0.02297701259787762 0.028205993250675819
809 0.02297701259787762 0.028205993250675819
810 0.02297701259787762 0.028205993250675819
811 0.045892831059677258 0.056336866144348859
812 0.045892831059677258 0.056336866144348859
813 0.02297701259787762 0.028205993250675819
814 0.02297701259787762 0.028205993250675819
815 0.045892831059677258 0.056336866144348859
816 0.068750966501000571 0.08439692883677076
817 0.02297701259787762 0.028205993250675819
818 0.02297701259787762 0.028205993250675819
819 0.02297701259787762 0.028205993250675819
820 0.02297701259787762 0.028205993250675819
821 0.27236870106830768 0.33435285424084288
822 0.02297701259787762 0.028205993250675819
823 0.11430732134811963 0.14032074538470352
824 0.068750966501000571 0.08439692883677076
825 0.02297701259787762 0.028205993250675819
826 0.02297701259787762 0.028205993250675819
827 0.11430732134811963 0.14032074538470352
828 0.091554747881685369 0.1123902678739314
829 0.02297701259787762 0.028205993250675819
830 0.02297701259787762 0.028205993250675819
831 0.02297701259787762 0.028205993250675819
832 0.02297701259787762 0.028205993250675819
833 0.02297701259787762 0.028205993250675819
834 0.02297701259787762 0.028205993250675819
835 0.02297701259787762 0.028205993250675819
836 0.045892831059677258 0.056336866144348859
837 0.02297701259787762 0.028205993250675819
838 0.02297701259787762 0.028205993250675819
839 0.045892831059677258 0.056336866144348859
840 0.02297701259787762 0.028205993250675819
841 0.091554747881685369 0.1123902678739314
842 0.02297701259787762 0.028205993250675819
843 0.02297701259787762 0.028205993250675819
844 0.045892831059677258 0.056336866144348859
845 0.02297701259787762 0.028205993250675819
846 0.02297701259787762 0.028205993250675819
847 0.02297701259787762 0.028205993250675819
848 0.02297701259787762 0.028205993250675819
849 0.091554747881685369 0.1123902678739314
850 0.02297701259787762 0.028205993250675819
851 0.02297701259787762 0.028205993250675819
852 0.18228655343328989 0.22377031278223222
853 0.045892831059677258 0.056336866144348859
854 0.02297701259787762 0.028205993250675819
855 0.02297701259787762 0.028205993250675819
856 0.02297701259787762 0.028205993250675819
857 0.02297701259787762 0.028205993250675819
858 0.02297701259787762 0.028205993250675819
859 0.02297701259787762 0.028205993250675819
860 0.02297701259787762 0.028205993250675819
861 0.02297701259787762 0.028205993250675819
862 0.02297701259787762 0.028205993250675819
863 1.13295291388261 1.3907840327884029
864 0.02297701259787762 0.028205993250675819
865 0.02297701259787762 0.028205993250675819
866 0.02297701259787762 0.028205993250675819
867 2.6812336354081419 3.2914138642545949
868 0.02297701259787762 0.028205993250675819
869 0.02297701259787762 0.028205993250675819
870 0.02297701259787762 0.028205993250675819
871 0.02297701259787762 0.028205993250675819
872 0.02297701259787762 0.028205993250675819
873 0.02297701259787762 0.028205993250675819
874 0.068750966501000571 0.08439692883677076
875 0.02297701259787762 0.028205993250675819
876 0.02297701259787762 0.028205993250675819
877 0.02297701259787762 0.028205993250675819
878 0.02297701259787762 0.028205993250675819
879 0.02297701259787762 0.028205993250675819
880 0.045892831059677258 0.056336866144348859
881 0.02297701259787762 0.028205993250675819
882 0.02297701259787762 0.028205993250675819
883 0.02297701259787762 0.028205993250675819
884 0.02297701259787762 0.028205993250675819
885 0.045892831059677258 0.056336866144348859
886 0.045892831059677258 0.056336866144348859
887 0.02297701259787762 0.028205993250675819
888 0.02297701259787762 0.028205993250675819
889 0.02297701259787762 0.028205993250675819
890 0.02297701259787762 0.028205993250675819
891 0.02297701259787762 0.028205993250675819
892 0.02297701259787762 0.028205993250675819
893 0.02297701259787762 0.028205993250675819
894 0.02297701259787762 0.028205993250675819
895 0.36193334298198548 0.44430011890612253
896 0.045892831059677258 0.056336866144348859
897 0.02297701259787762 0.028205993250675819
898 0.02297701259787762 0.028205993250675819
899 0.02297701259787762 0.028205993250675819
900 0.02297701259787762 0.028205993250675819
901 0.02297701259787762 0.028205993250675819
902 0.02297701259787762 0.028205993250675819
903 0.02297701259787762 0.028205993250675819
904 0.02297701259787762 0.028205993250675819
905 0.02297701259787762 0.028205993250675819
906 0.02297701259787762 0.028205993250675819
907 0.02297701259787762 0.028205993250675819
908 0.02297701259787762 0.028205993250675819
909 0.02297701259787762 0.028205993250675819
910 0.02297701259787762 0.028205993250675819
911 0.02297701259787762 0.028205993250675819
912 0.02297701259787762 0.028205993250675819
913 0.02297701259787762 0.028205993250675819
914 0.02297701259787762 0.028205993250675819
915 0.045892831059677258 0.056336866144348859
916 0.02297701259787762 0.028205993250675819
917 0.02297701259787762 0.028205993250675819
918 0.02297701259787762 0.028205993250675819
919 0.02297701259787762 0.028205993250675819
920 0.02297701259787762 0.028205993250675819
921 0.045892831059677258 0.056336866144348859
922 0.02297701259787762 0.028205993250675819
923 0.02297701259787762 0.028205993250675819
924 0.02297701259787762 0.028205993250675819
925 0.02297701259787762 0.028205993250675819
926 0.02297701259787762 0.028205993250675819
927 0.02297701259787762 0.028205993250675819
928 0.02297701259787762 0.028205993250675819
929 0.02297701259787762 0.028205993250675819
930 0.02297701259787762 0.028205993250675819
931 0.02297701259787762 0.028205993250675819
932 0.02297701259787762 0.028205993250675819
933 0.02297701259787762 0.028205993250675819
934 0.045892831059677258 0.056336866144348859
935 0.02297701259787762 0.028205993250675819
936 0.02297701259787762 0.028205993250675819
937 0.02297701259787762 0.028205993250675819
938 0.02297701259787762 0.028205993250675819
939 0.02297701259787762 0.028205993250675819
940 0.045892831059677258 0.056336866144348859
941 0.02297701259787762 0.028205993250675819
942 0.02297701259787762 0.028205993250675819
943 0.02297701259787762 0.028205993250675819
944 0.02297701259787762 0.028205993250675819
945 0.02297701259787762 0.028205993250675819
946 0.045892831059677258 0.056336866144348859
947 0.02297701259787762 0.028205993250675819
948 0.02297701259787762 0.028205993250675819
949 0.02297701259787762 0.028205993250675819
950 0.02297701259787762 0.028205993250675819
951 0.091554747881685369 0.1123902678739314
952 0.02297701259787762 0.028205993250675819
953 0.045892831059677258 0.056336866144348859
954 0.02297701259787762 0.028205993250675819
955 0.02297701259787762 0.028205993250675819
956 0.02297701259787762 0.028205993250675819
957 0.02297701259787762 0.028205993250675819
958 0.02297701259787762 0.028205993250675819
959 0.091554747881685369 0.1123902678739314
960 0.02297701259787762 0.028205993250675819
961 0.02297701259787762 0.028205993250675819
962 0.02297701259787762 0.028205993250675819
963 0.02297701259787762 0.028205993250675819
964 0.02297701259787762 0.028205993250675819
965 0.02297701259787762 0.028205993250675819
966 0.02297701259787762 0.028205993250675819
967 0.02297701259787762 0.028205993250675819
968 0.02297701259787762 0.028205993250675819
969 0.02297701259787762 0.028205993250675819
970 0.045892831059677258 0.056336866144348859
971 0.02297701259787762 0.028205993250675819
972 0.02297701259787762 0.028205993250675819
973 0.02297701259787762 0.028205993250675819
974 0.02297701259787762 0.028205993250675819
975 0.02297701259787762 0.028205993250675819
976 0.045892831059677258 0.056336866144348859
977 0.02297701259787762 0.028205993250675819
978 0.02297701259787762 0.028205993250675819
979 0.045892831059677258 0.056336866144348859
980 0.02297701259787762 0.028205993250675819
981 0.045892831059677258 0.056336866144348859
982 0.02297701259787762 0.028205993250675819
983 0.02297701259787762 0.028205993250675819
984 0.045892831059677258 0.056336866144348859
985 0.02297701259787762 0.028205993250675819
986 0.02297701259787762 0.028205993250675819
987 0.045892831059677258 0.056336866144348859
988 0.02297701259787762 0.028205993250675819
989 0.02297701259787762 0.028205993250675819
990 0.02297701259787762 0.028205993250675819
991 0.02297701259787762 0.028205993250675819
992 0.091554747881685369 0.1123902678739314
993 0.068750966501000571 0.08439692883677076
994 0.02297701259787762 0.028205993250675819
995 0.02297701259787762 0.028205993250675819
996 0.02297701259787762 0.028205993250675819
997 0.045892831059677258 0.056336866144348859
998 0.02297701259787762 0.028205993250675819
999 0.045892831059677258 0.056336866144348859
