# #Node_id x y
0 0.13427366539660041 0.0070965634634684426
1 1.1122148757977466 0.058782214872882058
2 0.59973780811454269 0.031697037569915806
3 0.27018916076943045 0.014279900089702134
4 0.092138413994852314 0.0048696525890351864
5 0.31300457863089093 0.016542758775888417
6 1.02984794049175 0.054428999505118349
7 0.22753718354187871 0.012025679484762877
8 0.15117261314256916 0.0079896980538654988
9 0.36459997971997726 0.019269652669566956
10 0.53830856765524182 0.028450410599954856
11 1.02984794049175 0.054428999505118349
12 0.04178628906488685 0.0022084676945097752
13 0.89377340239306324 0.047237257233637003
14 1.3812565399464747 0.073001468054878407
15 0.40777777891110928 0.021551663749458893
16 0.33017669636434566 0.01745033080751255
17 0.41643321957931256 0.022009116696950676
18 0.29585874428021136 0.015636575860241277
19 0.39048679425583072 0.020637809423745872
20 0.18504775652695205 0.0097800499009780065
21 0.90279805350656417 0.047714223503779643
22 0.083730515095073982 0.0044252825931729153
23 0.83976678463550181 0.044382926943093266
24 0.050162462096855286 0.0026511609309443659
25 0.69693469086358473 0.036834037776490407
26 0.76813510017133602 0.040597085592195124
27 0.59094207190549852 0.03123216979386265
28 0.2531088054475642 0.013377177838378985
29 0.23605454556828315 0.012475834770113738
30 0.78600259228625158 0.041541409196917171
31 0.12583381862838589 0.0066505049751142574
32 0.38185123981611041 0.020181407493086497
33 0.73248098763493463 0.038712712572356534
34 0.19353268275443999 0.010228490905983498
35 0.59973780811454269 0.031697037569915806
36 0.29585874428021136 0.015636575860241277
37 1.2228734336608154 0.064630684685125256
38 0.083730515095073982 0.0044252825931729153
39 1.2043643364609746 0.063652451294815393
40 0.18504775652695205 0.0097800499009780065
41 0.64381729155464185 0.034026704007080466
42 0.1089733370356461 0.0057594033782813773
43 0.058544962048764158 0.0030941885545334182
44 0.22753718354187871 0.012025679484762877
45 0.10055268504229228 0.0053143593624044158
46 0.04178628906488685 0.0022084676945097752
47 0.21052195868283119 0.011126399475531241
48 0.075328979460945564 0.0039812489053899494
49 1.3438208944980965 0.071022938363775129
50 0.14271992744642825 0.0075429610090232118
51 0.16809728848346614 0.0088841923860230598
52 0.59094207190549852 0.03123216979386265
53 0.29585874428021136 0.015636575860241277
54 0.65265336332386115 0.034493703577642962
55 0.092138413994852314 0.0048696525890351864
56 0.92086752293405116 0.048669221910687212
57 0.28729566731667533 0.015184004472286664
58 0.27018916076943045 0.014279900089702134
59 0.092138413994852314 0.0048696525890351864
60 0.45112142104662095 0.023842439876289399
61 0.60854026148640605 0.032162260358041123
62 0.083730515095073982 0.0044252825931729153
63 1.0663888386260267 0.056360240466300872
64 0.27873914171777048 0.014731779333723159
65 0.8038970400102502 0.042487157445778877
66 0.55582624732343666 0.0293762460951792
67 0.22753718354187871 0.012025679484762877
68 0.050162462096855286 0.0026511609309443659
69 0.050162462096855286 0.0026511609309443659
70 0.70581115923689974 0.037303172367823836
71 0.21052195868283119 0.011126399475531241
72 0.058544962048764158 0.0030941885545334182
73 0.033416433667024611 0.0017661083544594175
74 0.15963173076009035 0.0084367750353449619
75 0.36459997971997726 0.019269652669566956
76 0.59094207190549852 0.03123216979386265
77 0.47720746446897849 0.025221126174237211
78 0.12583381862838589 0.0066505049751142574
79 0.39048679425583072 0.020637809423745872
80 0.016695638242548865 0.00088238937993837874
81 0.10055268504229228 0.0053143593624044158
82 1.0389731533468312 0.054911280613275139
83 0.10055268504229228 0.0053143593624044158
84 0.15963173076009035 0.0084367750353449619
85 0.016695638242548865 0.00088238937993837874
86 0.050162462096855286 0.0026511609309443659
87 0.075328979460945564 0.0039812489053899494
88 0.058544962048764158 0.0030941885545334182
89 0.008344679259570718 0.00044102874359555486
90 0.033416433667024611 0.0017661083544594175
91 0.033416433667024611 0.0017661083544594175
92 0.050162462096855286 0.0026511609309443659
93 0.066933798127690611 0.0035375510518845655
94 0.19353268275443999 0.010228490905983498
95 0.59094207190549852 0.03123216979386265
96 0.15117261314256916 0.0079896980538654988
97 0.16809728848346614 0.0088841923860230598
98 0.083730515095073982 0.0044252825931729153
99 0.04178628906488685 0.0022084676945097752
100 0.52081767658158851 0.027525990921902846
101 0.008344679259570718 0.00044102874359555486
102 0.016695638242548865 0.00088238937993837874
103 0.008344679259570718 0.00044102874359555486
104 0.066933798127690611 0.0035375510518845655
105 0.15963173076009035 0.0084367750353449619
106 0.95708706589141146 0.050583478771520321
107 0.050162462096855286 0.0026511609309443659
108 0.016695638242548865 0.00088238937993837874
109 0.025052886539685598 0.0013240824159139618
110 0.21052195868283119 0.011126399475531241
111 0.008344679259570718 0.00044102874359555486
112 0.008344679259570718 0.00044102874359555486
113 0.04178628906488685 0.0022084676945097752
114 0.033416433667024611 0.0017661083544594175
115 0.2531088054475642 0.013377177838378985
116 0.058544962048764158 0.0030941885545334182
117 0.016695638242548865 0.00088238937993837874
118 0.008344679259570718 0.00044102874359555486
119 0.56459514088746066 0.029839695197411489
120 0.016695638242548865 0.00088238937993837874
121 0.058544962048764158 0.0030941885545334182
122 0.008344679259570718 0.00044102874359555486
123 0.016695638242548865 0.00088238937993837874
124 0.033416433667024611 0.0017661083544594175
125 0.008344679259570718 0.00044102874359555486
126 0.050162462096855286 0.0026511609309443659
127 0.025052886539685598 0.0013240824159139618
128 0.025052886539685598 0.0013240824159139618
129 0.083730515095073982 0.0044252825931729153
130 0.025052886539685598 0.0013240824159139618
131 0.35598426292527102 0.018814299188031226
132 0.033416433667024611 0.0017661083544594175
133 0.083730515095073982 0.0044252825931729153
134 0.016695638242548865 0.00088238937993837874
135 0.016695638242548865 0.00088238937993837874
136 0.083730515095073982 0.0044252825931729153
137 0.33017669636434566 0.01745033080751255
138 0.025052886539685598 0.0013240824159139618
139 0.04178628906488685 0.0022084676945097752
140 0.016695638242548865 0.00088238937993837874
141 0.008344679259570718 0.00044102874359555486
142 0.050162462096855286 0.0026511609309443659
143 0.04178628906488685 0.0022084676945097752
144 0.04178628906488685 0.0022084676945097752
145 0.1089733370356461 0.0057594033782813773
146 0.04178628906488685 0.0022084676945097752
147 0.016695638242548865 0.00088238937993837874
148 0.016695638242548865 0.00088238937993837874
149 0.04178628906488685 0.0022084676945097752
150 0.04178628906488685 0.0022084676945097752
151 0.008344679259570718 0.00044102874359555486
152 0.008344679259570718 0.00044102874359555486
153 0.083730515095073982 0.0044252825931729153
154 0.14271992744642825 0.0075429610090232118
155 0.075328979460945564 0.0039812489053899494
156 1.0025124041544908 0.052984275643203384
157 0.033416433667024611 0.0017661083544594175
158 0.025052886539685598 0.0013240824159139618
159 0.28729566731667533 0.015184004472286664
160 0.008344679259570718 0.00044102874359555486
161 0.058544962048764158 0.0030941885545334182
162 0.016695638242548865 0.00088238937993837874
163 0.35598426292527102 0.018814299188031226
164 0.016695638242548865 0.00088238937993837874
165 0.10055268504229228 0.0053143593624044158
166 0.016695638242548865 0.00088238937993837874
167 0.04178628906488685 0.0022084676945097752
168 0.008344679259570718 0.00044102874359555486
169 0.52081767658158851 0.027525990921902846
170 0.033416433667024611 0.0017661083544594175
171 0.20202408090065038 0.010677273961545306
172 0.025052886539685598 0.0013240824159139618
173 0.016695638242548865 0.00088238937993837874
174 0.2190263237219687 0.011575867850722201
175 0.033416433667024611 0.0017661083544594175
176 0.033416433667024611 0.0017661083544594175
177 0.04178628906488685 0.0022084676945097752
178 0.008344679259570718 0.00044102874359555486
179 0.066933798127690611 0.0035375510518845655
180 0.008344679259570718 0.00044102874359555486
181 0.1089733370356461 0.0057594033782813773
182 0.016695638242548865 0.00088238937993837874
183 0.16809728848346614 0.0088841923860230598
184 0.033416433667024611 0.0017661083544594175
185 0.016695638242548865 0.00088238937993837874
186 0.46850545126707033 0.024761211798884141
187 0.075328979460945564 0.0039812489053899494
188 0.17656929440561472 0.009331950533622832
189 0.14271992744642825 0.0075429610090232118
190 0.12583381862838589 0.0066505049751142574
191 0.058544962048764158 0.0030941885545334182
192 0.52955977520821673 0.027988023871733537
193 0.10055268504229228 0.0053143593624044158
194 0.17656929440561472 0.009331950533622832
195 0.11740037868841996 0.0062047850971877795
196 0.37322230347501262 0.019725355338809335
197 0.27873914171777048 0.014731779333723159
198 0.39912897219282578 0.021094561416114089
199 0.008344679259570718 0.00044102874359555486
200 0.22753718354187871 0.012025679484762877
201 0.016695638242548865 0.00088238937993837874
202 0.60854026148640605 0.032162260358041123
203 0.14271992744642825 0.0075429610090232118
204 0.058544962048764158 0.0030941885545334182
205 0.033416433667024611 0.0017661083544594175
206 0.092138413994852314 0.0048696525890351864
207 0.14271992744642825 0.0075429610090232118
208 0.18504775652695205 0.0097800499009780065
209 0.050162462096855286 0.0026511609309443659
210 0.04178628906488685 0.0022084676945097752
211 0.15963173076009035 0.0084367750353449619
212 0.27873914171777048 0.014731779333723159
213 0.27873914171777048 0.014731779333723159
214 0.04178628906488685 0.0022084676945097752
215 0.033416433667024611 0.0017661083544594175
216 0.058544962048764158 0.0030941885545334182
217 0.033416433667024611 0.0017661083544594175
218 0.025052886539685598 0.0013240824159139618
219 0.008344679259570718 0.00044102874359555486
220 0.18504775652695205 0.0097800499009780065
221 0.050162462096855286 0.0026511609309443659
222 0.016695638242548865 0.00088238937993837874
223 0.050162462096855286 0.0026511609309443659
224 0.23605454556828315 0.012475834770113738
225 0.092138413994852314 0.0048696525890351864
226 0.033416433667024611 0.0017661083544594175
227 0.016695638242548865 0.00088238937993837874
228 0.18504775652695205 0.0097800499009780065
229 0.033416433667024611 0.0017661083544594175
230 0.016695638242548865 0.00088238937993837874
231 0.008344679259570718 0.00044102874359555486
232 0.025052886539685598 0.0013240824159139618
233 0.008344679259570718 0.00044102874359555486
234 0.083730515095073982 0.0044252825931729153
235 0.13427366539660041 0.0070965634634684426
236 1.0846992919027849 0.057327975229030284
237 0.008344679259570718 0.00044102874359555486
238 0.050162462096855286 0.0026511609309443659
239 0.13427366539660041 0.0070965634634684426
240 0.33877262715266576 0.017904638569103209
241 0.033416433667024611 0.0017661083544594175
242 0.016695638242548865 0.00088238937993837874
243 0.008344679259570718 0.00044102874359555486
244 0.008344679259570718 0.00044102874359555486
245 0.2190263237219687 0.011575867850722201
246 0.092138413994852314 0.0048696525890351864
247 0.016695638242548865 0.00088238937993837874
248 0.033416433667024611 0.0017661083544594175
249 0.15117261314256916 0.0079896980538654988
250 0.008344679259570718 0.00044102874359555486
251 0.12583381862838589 0.0066505049751142574
252 0.083730515095073982 0.0044252825931729153
253 0.025052886539685598 0.0013240824159139618
254 0.075328979460945564 0.0039812489053899494
255 0.050162462096855286 0.0026511609309443659
256 0.025052886539685598 0.0013240824159139618
257 0.033416433667024611 0.0017661083544594175
258 0.016695638242548865 0.00088238937993837874
259 0.066933798127690611 0.0035375510518845655
260 0.13427366539660041 0.0070965634634684426
261 0.025052886539685598 0.0013240824159139618
262 0.17656929440561472 0.009331950533622832
263 0.008344679259570718 0.00044102874359555486
264 0.050162462096855286 0.0026511609309443659
265 0.016695638242548865 0.00088238937993837874
266 0.075328979460945564 0.0039812489053899494
267 0.13427366539660041 0.0070965634634684426
268 0.13427366539660041 0.0070965634634684426
269 0.058544962048764158 0.0030941885545334182
270 0.083730515095073982 0.0044252825931729153
271 0.04178628906488685 0.0022084676945097752
272 0.016695638242548865 0.00088238937993837874
273 0.15963173076009035 0.0084367750353449619
274 0.016695638242548865 0.00088238937993837874
275 0.033416433667024611 0.0017661083544594175
276 0.025052886539685598 0.0013240824159139618
277 0.11740037868841996 0.0062047850971877795
278 0.083730515095073982 0.0044252825931729153
279 0.008344679259570718 0.00044102874359555486
280 0.066933798127690611 0.0035375510518845655
281 0.033416433667024611 0.0017661083544594175
282 0.008344679259570718 0.00044102874359555486
283 0.033416433667024611 0.0017661083544594175
284 0.075328979460945564 0.0039812489053899494
285 0.025052886539685598 0.0013240824159139618
286 0.31300457863089093 0.016542758775888417
287 0.092138413994852314 0.0048696525890351864
288 0.04178628906488685 0.0022084676945097752
289 0.14271992744642825 0.0075429610090232118
290 0.058544962048764158 0.0030941885545334182
291 0.066933798127690611 0.0035375510518845655
292 0.04178628906488685 0.0022084676945097752
293 0.15963173076009035 0.0084367750353449619
294 0.025052886539685598 0.0013240824159139618
295 0.10055268504229228 0.0053143593624044158
296 0.008344679259570718 0.00044102874359555486
297 0.008344679259570718 0.00044102874359555486
298 0.12583381862838589 0.0066505049751142574
299 0.050162462096855286 0.0026511609309443659
300 0.050162462096855286 0.0026511609309443659
301 0.016695638242548865 0.00088238937993837874
302 0.008344679259570718 0.00044102874359555486
303 0.016695638242548865 0.00088238937993837874
304 0.016695638242548865 0.00088238937993837874
305 0.033416433667024611 0.0017661083544594175
306 0.008344679259570718 0.00044102874359555486
307 0.050162462096855286 0.0026511609309443659
308 0.033416433667024611 0.0017661083544594175
309 0.008344679259570718 0.00044102874359555486
310 0.008344679259570718 0.00044102874359555486
311 0.04178628906488685 0.0022084676945097752
312 0.050162462096855286 0.0026511609309443659
313 0.025052886539685598 0.0013240824159139618
314 0.016695638242548865 0.00088238937993837874
315 0.025052886539685598 0.0013240824159139618
316 0.008344679259570718 0.00044102874359555486
317 0.008344679259570718 0.00044102874359555486
318 0.025052886539685598 0.0013240824159139618
319 0.008344679259570718 0.00044102874359555486
320 0.008344679259570718 0.00044102874359555486
321 0.1089733370356461 0.0057594033782813773
322 0.11740037868841996 0.0062047850971877795
323 0.050162462096855286 0.0026511609309443659
324 0.033416433667024611 0.0017661083544594175
325 0.058544962048764158 0.0030941885545334182
326 0.033416433667024611 0.0017661083544594175
327 0.025052886539685598 0.0013240824159139618
328 0.20202408090065038 0.010677273961545306
329 0.050162462096855286 0.0026511609309443659
330 0.075328979460945564 0.0039812489053899494
331 0.008344679259570718 0.00044102874359555486
332 0.050162462096855286 0.0026511609309443659
333 0.050162462096855286 0.0026511609309443659
334 0.016695638242548865 0.00088238937993837874
335 0.066933798127690611 0.0035375510518845655
336 0.10055268504229228 0.0053143593624044158
337 0.17656929440561472 0.009331950533622832
338 0.008344679259570718 0.00044102874359555486
339 0.033416433667024611 0.0017661083544594175
340 0.050162462096855286 0.0026511609309443659
341 0.008344679259570718 0.00044102874359555486
342 0.008344679259570718 0.00044102874359555486
343 0.016695638242548865 0.00088238937993837874
344 0.016695638242548865 0.00088238937993837874
345 0.058544962048764158 0.0030941885545334182
346 0.016695638242548865 0.00088238937993837874
347 0.008344679259570718 0.00044102874359555486
348 0.016695638242548865 0.00088238937993837874
349 0.033416433667024611 0.0017661083544594175
350 0.016695638242548865 0.00088238937993837874
351 0.008344679259570718 0.00044102874359555486
352 0.04178628906488685 0.0022084676945097752
353 0.008344679259570718 0.00044102874359555486
354 0.016695638242548865 0.00088238937993837874
355 0.025052886539685598 0.0013240824159139618
356 0.008344679259570718 0.00044102874359555486
357 0.050162462096855286 0.0026511609309443659
358 0.008344679259570718 0.00044102874359555486
359 0.050162462096855286 0.0026511609309443659
360 0.092138413994852314 0.0048696525890351864
361 0.092138413994852314 0.0048696525890351864
362 0.033416433667024611 0.0017661083544594175
363 0.04178628906488685 0.0022084676945097752
364 0.033416433667024611 0.0017661083544594175
365 0.016695638242548865 0.00088238937993837874
366 0.016695638242548865 0.00088238937993837874
367 0.008344679259570718 0.00044102874359555486
368 0.016695638242548865 0.00088238937993837874
369 0.008344679259570718 0.00044102874359555486
370 0.025052886539685598 0.0013240824159139618
371 0.025052886539685598 0.0013240824159139618
372 0.008344679259570718 0.00044102874359555486
373 0.008344679259570718 0.00044102874359555486
374 0.025052886539685598 0.0013240824159139618
375 0.016695638242548865 0.00088238937993837874
376 0.033416433667024611 0.0017661083544594175
377 0.025052886539685598 0.0013240824159139618
378 0.008344679259570718 0.00044102874359555486
379 0.008344679259570718 0.00044102874359555486
380 0.008344679259570718 0.00044102874359555486
381 0.016695638242548865 0.00088238937993837874
382 0.008344679259570718 0.00044102874359555486
383 0.016695638242548865 0.00088238937993837874
384 0.016695638242548865 0.00088238937993837874
385 0.008344679259570718 0.00044102874359555486
386 0.016695638242548865 0.00088238937993837874
387 0.016695638242548865 0.00088238937993837874
388 0.008344679259570718 0.00044102874359555486
389 0.008344679259570718 0.00044102874359555486
390 0.025052886539685598 0.0013240824159139618
391 0.016695638242548865 0.00088238937993837874
392 0.016695638242548865 0.00088238937993837874
393 0.008344679259570718 0.00044102874359555486
394 0.016695638242548865 0.00088238937993837874
395 0.008344679259570718 0.00044102874359555486
396 0.016695638242548865 0.00088238937993837874
397 0.008344679259570718 0.00044102874359555486
398 0.016695638242548865 0.00088238937993837874
399 0.008344679259570718 0.00044102874359555486
400 0.025052886539685598 0.0013240824159139618
401 0.033416433667024611 0.0017661083544594175
402 0.008344679259570718 0.00044102874359555486
403 0.025052886539685598 0.0013240824159139618
404 0.016695638242548865 0.00088238937993837874
405 0.008344679259570718 0.00044102874359555486
406 0.008344679259570718 0.00044102874359555486
407 0.033416433667024611 0.0017661083544594175
408 0.008344679259570718 0.00044102874359555486
409 0.008344679259570718 0.00044102874359555486
410 0.016695638242548865 0.00088238937993837874
411 0.008344679259570718 0.00044102874359555486
412 0.008344679259570718 0.00044102874359555486
413 0.016695638242548865 0.00088238937993837874
414 0.008344679259570718 0.00044102874359555486
415 0.008344679259570718 0.00044102874359555486
416 0.008344679259570718 0.00044102874359555486
