# #Node_id x y
0 0.20159619094036446 0.20159619662750883
1 0.8737103789315972 0.87371044473001058
2 0.64599677774261166 0.64599682042533391
3 0.36668127060299438 0.36668130387816578
4 0.14281758460173738 0.14281760514712422
5 0.41174838941570541 0.41174841731736528
6 0.84795253485324229 0.84795259871177975
7 0.3186390989580038 0.31863911500563175
8 0.22409952934352445 0.22409953914772757
9 0.46213913306650284 0.46213915689369117
10 0.60438099919525423 0.60438103368661367
11 0.84795253485324229 0.84795259871177975
12 0.067306332983146089 0.06730633751610493
13 0.79786386199503323 0.79786391759140174
14 0.94086949137724218 0.94086958441748902
15 0.50124545956942002 0.50124548799999369
16 0.42898028611437955 0.42898030812265048
17 0.50876675081693912 0.50876677253806057
18 0.39406758300515693 0.39406760279601227
19 0.48590654195004579 0.4859065723579899
20 0.26744576655638752 0.26744577171076744
21 0.80151497713779285 0.8015150397553481
22 0.1306173320445066 0.13061734220423149
23 0.77492409202627965 0.77492414658599806
24 0.080281792123137963 0.080281792186757961
25 0.70411231916892314 0.70411235825973872
26 0.74138356993995469 0.74138362734931018
27 0.64028370665824719 0.64028374510632247
28 0.34783111917574849 0.34783113417908729
29 0.32849389139481638 0.32849390834597547
30 0.75010287531447273 0.75010293333989275
31 0.19013163038111741 0.19013161353699959
32 0.47808649876434017 0.47808652397683693
33 0.72323965869597207 0.72323970845625563
34 0.27794519633078962 0.27794520763561159
35 0.64599677774261166 0.64599682042533391
36 0.39406758300515693 0.39406760279601227
37 0.9039489960926369 0.90394907031096539
38 0.1306173320445066 0.13061734220423149
39 0.89919682706523996 0.89919690148076259
40 0.26744576655638752 0.26744577171076744
41 0.67345993104963942 0.67345997144419667
42 0.16676886534570862 0.16676887445006983
43 0.093099042088703288 0.093099027095758069
44 0.3186390989580038 0.31863911500563175
45 0.15486758547340707 0.15486759093273011
46 0.067306332983146089 0.06730633751610493
47 0.29854999498218082 0.2985500133346834
48 0.11826521223280634 0.11826521753132868
49 0.93261012864259096 0.93261021953237311
50 0.21291832057552618 0.21291832944221273
51 0.24604532929900463 0.24604534130460581
52 0.64028370665824719 0.64028374510632247
53 0.39406758300515693 0.39406760279601227
54 0.67873863455012706 0.67873868482930955
55 0.14281758460173738 0.14281760514712422
56 0.8086757544504205 0.80867581833614799
57 0.38505551083836054 0.38505553806604581
58 0.36668127060299438 0.36668130387816578
59 0.14281758460173738 0.14281760514712422
60 0.53789181197906655 0.53789185082204483
61 0.65163511064552115 0.65163514810538925
62 0.1306173320445066 0.13061734220423149
63 0.85975986446187758 0.85975992857232297
64 0.375927198036073 0.37592722318586663
65 0.75859538477903898 0.75859543929735085
66 0.61666454992406905 0.6166646018405022
67 0.3186390989580038 0.31863911500563175
68 0.080281792123137963 0.080281792186757961
69 0.080281792123137963 0.080281792186757961
70 0.70898923061283126 0.70898927423184332
71 0.29854999498218082 0.2985500133346834
72 0.093099042088703288 0.093099027095758069
73 0.054171050217315497 0.054171055031062842
74 0.23514135835900951 0.23514136812804781
75 0.46213913306650284 0.46213915689369117
76 0.64028370665824719 0.64028374510632247
77 0.55875965423908402 0.55875969102480927
78 0.19013163038111741 0.19013161353699959
79 0.48590654195004579 0.4859065723579899
80 0.027414686079852146 0.027414683734484913
81 0.15486758547340707 0.15486759093273011
82 0.85096064465605881 0.8509607091924114
83 0.15486758547340707 0.15486759093273011
84 0.23514135835900951 0.23514136812804781
85 0.027414686079852146 0.027414683734484913
86 0.080281792123137963 0.080281792186757961
87 0.11826521223280634 0.11826521753132868
88 0.093099042088703288 0.093099027095758069
89 0.013790419653402552 0.013790421310976853
90 0.054171050217315497 0.054171055031062842
91 0.054171050217315497 0.054171055031062842
92 0.080281792123137963 0.080281792186757961
93 0.10575964274608468 0.10575964847666081
94 0.27794519633078962 0.27794520763561159
95 0.64028370665824719 0.64028374510632247
96 0.22409952934352445 0.22409953914772757
97 0.24604532929900463 0.24604534130460581
98 0.1306173320445066 0.13061734220423149
99 0.067306332983146089 0.06730633751610493
100 0.59177063669874874 0.59177067696617025
101 0.013790419653402552 0.013790421310976853
102 0.027414686079852146 0.027414683734484913
103 0.013790419653402552 0.013790421310976853
104 0.10575964274608468 0.10575964847666081
105 0.23514135835900951 0.23514136812804781
106 0.82244999475884217 0.82245005046747877
107 0.080281792123137963 0.080281792186757961
108 0.027414686079852146 0.027414683734484913
109 0.040874369620979845 0.040874372507092416
110 0.29854999498218082 0.2985500133346834
111 0.013790419653402552 0.013790421310976853
112 0.013790419653402552 0.013790421310976853
113 0.067306332983146089 0.06730633751610493
114 0.054171050217315497 0.054171055031062842
115 0.34783111917574849 0.34783113417908729
116 0.093099042088703288 0.093099027095758069
117 0.027414686079852146 0.027414683734484913
118 0.013790419653402552 0.013790421310976853
119 0.62268634857612759 0.6226863867992688
120 0.027414686079852146 0.027414683734484913
121 0.093099042088703288 0.093099027095758069
122 0.013790419653402552 0.013790421310976853
123 0.027414686079852146 0.027414683734484913
124 0.054171050217315497 0.054171055031062842
125 0.013790419653402552 0.013790421310976853
126 0.080281792123137963 0.080281792186757961
127 0.040874369620979845 0.040874372507092416
128 0.040874369620979845 0.040874372507092416
129 0.1306173320445066 0.13061734220423149
130 0.040874369620979845 0.040874372507092416
131 0.45400933578312042 0.45400936679422066
132 0.054171050217315497 0.054171055031062842
133 0.1306173320445066 0.13061734220423149
134 0.027414686079852146 0.027414683734484913
135 0.027414686079852146 0.027414683734484913
136 0.1306173320445066 0.13061734220423149
137 0.42898028611437955 0.42898030812265048
138 0.040874369620979845 0.040874372507092416
139 0.067306332983146089 0.06730633751610493
140 0.027414686079852146 0.027414683734484913
141 0.013790419653402552 0.013790421310976853
142 0.080281792123137963 0.080281792186757961
143 0.067306332983146089 0.06730633751610493
144 0.067306332983146089 0.06730633751610493
145 0.16676886534570862 0.16676887445006983
146 0.067306332983146089 0.06730633751610493
147 0.027414686079852146 0.027414683734484913
148 0.027414686079852146 0.027414683734484913
149 0.067306332983146089 0.06730633751610493
150 0.067306332983146089 0.06730633751610493
151 0.013790419653402552 0.013790421310976853
152 0.013790419653402552 0.013790421310976853
153 0.1306173320445066 0.13061734220423149
154 0.21291832057552618 0.21291832944221273
155 0.11826521223280634 0.11826521753132868
156 0.8386946840050864 0.83869474428134982
157 0.054171050217315497 0.054171055031062842
158 0.040874369620979845 0.040874372507092416
159 0.38505551083836054 0.38505553806604581
160 0.013790419653402552 0.013790421310976853
161 0.093099042088703288 0.093099027095758069
162 0.027414686079852146 0.027414683734484913
163 0.45400933578312042 0.45400936679422066
164 0.027414686079852146 0.027414683734484913
165 0.15486758547340707 0.15486759093273011
166 0.027414686079852146 0.027414683734484913
167 0.067306332983146089 0.06730633751610493
168 0.013790419653402552 0.013790421310976853
169 0.59177063669874874 0.59177067696617025
170 0.054171050217315497 0.054171055031062842
171 0.28831279066095739 0.28831280179642521
172 0.040874369620979845 0.040874372507092416
173 0.027414686079852146 0.027414683734484913
174 0.30865827895028763 0.30865829487283147
175 0.054171050217315497 0.054171055031062842
176 0.054171050217315497 0.054171055031062842
177 0.067306332983146089 0.06730633751610493
178 0.013790419653402552 0.013790421310976853
179 0.10575964274608468 0.10575964847666081
180 0.013790419653402552 0.013790421310976853
181 0.16676886534570862 0.16676887445006983
182 0.027414686079852146 0.027414683734484913
183 0.24604532929900463 0.24604534130460581
184 0.054171050217315497 0.054171055031062842
185 0.027414686079852146 0.027414683734484913
186 0.55189436187754159 0.55189439992437539
187 0.11826521223280634 0.11826521753132868
188 0.25681295648335489 0.25681297720127916
189 0.21291832057552618 0.21291832944221273
190 0.19013163038111741 0.19013161353699959
191 0.093099042088703288 0.093099027095758069
192 0.59811716382514046 0.59811720073464014
193 0.15486758547340707 0.15486759093273011
194 0.25681295648335489 0.25681297720127916
195 0.17852302120769609 0.17852302587902541
196 0.47016443395923757 0.47016446145504504
197 0.375927198036073 0.37592722318586663
198 0.49362579650256144 0.49362581771077252
199 0.013790419653402552 0.013790421310976853
200 0.3186390989580038 0.31863911500563175
201 0.027414686079852146 0.027414683734484913
202 0.65163511064552115 0.65163514810538925
203 0.21291832057552618 0.21291832944221273
204 0.093099042088703288 0.093099027095758069
205 0.054171050217315497 0.054171055031062842
206 0.14281758460173738 0.14281760514712422
207 0.21291832057552618 0.21291832944221273
208 0.26744576655638752 0.26744577171076744
209 0.080281792123137963 0.080281792186757961
210 0.067306332983146089 0.06730633751610493
211 0.23514135835900951 0.23514136812804781
212 0.375927198036073 0.37592722318586663
213 0.375927198036073 0.37592722318586663
214 0.067306332983146089 0.06730633751610493
215 0.054171050217315497 0.054171055031062842
216 0.093099042088703288 0.093099027095758069
217 0.054171050217315497 0.054171055031062842
218 0.040874369620979845 0.040874372507092416
219 0.013790419653402552 0.013790421310976853
220 0.26744576655638752 0.26744577171076744
221 0.080281792123137963 0.080281792186757961
222 0.027414686079852146 0.027414683734484913
223 0.080281792123137963 0.080281792186757961
224 0.32849389139481638 0.32849390834597547
225 0.14281758460173738 0.14281760514712422
226 0.054171050217315497 0.054171055031062842
227 0.027414686079852146 0.027414683734484913
228 0.26744576655638752 0.26744577171076744
229 0.054171050217315497 0.054171055031062842
230 0.027414686079852146 0.027414683734484913
231 0.013790419653402552 0.013790421310976853
232 0.040874369620979845 0.040874372507092416
233 0.013790419653402552 0.013790421310976853
234 0.1306173320445066 0.13061734220423149
235 0.20159619094036446 0.20159619662750883
236 0.86544434935950787 0.8654444165318822
237 0.013790419653402552 0.013790421310976853
238 0.080281792123137963 0.080281792186757961
239 0.20159619094036446 0.20159619662750883
240 0.43743116383114733 0.43743118181209267
241 0.054171050217315497 0.054171055031062842
242 0.027414686079852146 0.027414683734484913
243 0.013790419653402552 0.013790421310976853
244 0.013790419653402552 0.013790421310976853
245 0.30865827895028763 0.30865829487283147
246 0.14281758460173738 0.14281760514712422
247 0.027414686079852146 0.027414683734484913
248 0.054171050217315497 0.054171055031062842
249 0.22409952934352445 0.22409953914772757
250 0.013790419653402552 0.013790421310976853
251 0.19013163038111741 0.19013161353699959
252 0.1306173320445066 0.13061734220423149
253 0.040874369620979845 0.040874372507092416
254 0.11826521223280634 0.11826521753132868
255 0.080281792123137963 0.080281792186757961
256 0.040874369620979845 0.040874372507092416
257 0.054171050217315497 0.054171055031062842
258 0.027414686079852146 0.027414683734484913
259 0.10575964274608468 0.10575964847666081
260 0.20159619094036446 0.20159619662750883
261 0.040874369620979845 0.040874372507092416
262 0.25681295648335489 0.25681297720127916
263 0.013790419653402552 0.013790421310976853
264 0.080281792123137963 0.080281792186757961
265 0.027414686079852146 0.027414683734484913
266 0.11826521223280634 0.11826521753132868
267 0.20159619094036446 0.20159619662750883
268 0.20159619094036446 0.20159619662750883
269 0.093099042088703288 0.093099027095758069
270 0.1306173320445066 0.13061734220423149
271 0.067306332983146089 0.06730633751610493
272 0.027414686079852146 0.027414683734484913
273 0.23514135835900951 0.23514136812804781
274 0.027414686079852146 0.027414683734484913
275 0.054171050217315497 0.054171055031062842
276 0.040874369620979845 0.040874372507092416
277 0.17852302120769609 0.17852302587902541
278 0.1306173320445066 0.13061734220423149
279 0.013790419653402552 0.013790421310976853
280 0.10575964274608468 0.10575964847666081
281 0.054171050217315497 0.054171055031062842
282 0.013790419653402552 0.013790421310976853
283 0.054171050217315497 0.054171055031062842
284 0.11826521223280634 0.11826521753132868
285 0.040874369620979845 0.040874372507092416
286 0.41174838941570541 0.41174841731736528
287 0.14281758460173738 0.14281760514712422
288 0.067306332983146089 0.06730633751610493
289 0.21291832057552618 0.21291832944221273
290 0.093099042088703288 0.093099027095758069
291 0.10575964274608468 0.10575964847666081
292 0.067306332983146089 0.06730633751610493
293 0.23514135835900951 0.23514136812804781
294 0.040874369620979845 0.040874372507092416
295 0.15486758547340707 0.15486759093273011
296 0.013790419653402552 0.013790421310976853
297 0.013790419653402552 0.013790421310976853
298 0.19013163038111741 0.19013161353699959
299 0.080281792123137963 0.080281792186757961
300 0.080281792123137963 0.080281792186757961
301 0.027414686079852146 0.027414683734484913
302 0.013790419653402552 0.013790421310976853
303 0.027414686079852146 0.027414683734484913
304 0.027414686079852146 0.027414683734484913
305 0.054171050217315497 0.054171055031062842
306 0.013790419653402552 0.013790421310976853
307 0.080281792123137963 0.080281792186757961
308 0.054171050217315497 0.054171055031062842
309 0.013790419653402552 0.013790421310976853
310 0.013790419653402552 0.013790421310976853
311 0.067306332983146089 0.06730633751610493
312 0.080281792123137963 0.080281792186757961
313 0.040874369620979845 0.040874372507092416
314 0.027414686079852146 0.027414683734484913
315 0.040874369620979845 0.040874372507092416
316 0.013790419653402552 0.013790421310976853
317 0.013790419653402552 0.013790421310976853
318 0.040874369620979845 0.040874372507092416
319 0.013790419653402552 0.013790421310976853
320 0.013790419653402552 0.013790421310976853
321 0.16676886534570862 0.16676887445006983
322 0.17852302120769609 0.17852302587902541
323 0.080281792123137963 0.080281792186757961
324 0.054171050217315497 0.054171055031062842
325 0.093099042088703288 0.093099027095758069
326 0.054171050217315497 0.054171055031062842
327 0.040874369620979845 0.040874372507092416
328 0.28831279066095739 0.28831280179642521
329 0.080281792123137963 0.080281792186757961
330 0.11826521223280634 0.11826521753132868
331 0.013790419653402552 0.013790421310976853
332 0.080281792123137963 0.080281792186757961
333 0.080281792123137963 0.080281792186757961
334 0.027414686079852146 0.027414683734484913
335 0.10575964274608468 0.10575964847666081
336 0.15486758547340707 0.15486759093273011
337 0.25681295648335489 0.25681297720127916
338 0.013790419653402552 0.013790421310976853
339 0.054171050217315497 0.054171055031062842
340 0.080281792123137963 0.080281792186757961
341 0.013790419653402552 0.013790421310976853
342 0.013790419653402552 0.013790421310976853
343 0.027414686079852146 0.027414683734484913
344 0.027414686079852146 0.027414683734484913
345 0.093099042088703288 0.093099027095758069
346 0.027414686079852146 0.027414683734484913
347 0.013790419653402552 0.013790421310976853
348 0.027414686079852146 0.027414683734484913
349 0.054171050217315497 0.054171055031062842
350 0.027414686079852146 0.027414683734484913
351 0.013790419653402552 0.013790421310976853
352 0.067306332983146089 0.06730633751610493
353 0.013790419653402552 0.013790421310976853
354 0.027414686079852146 0.027414683734484913
355 0.040874369620979845 0.040874372507092416
356 0.013790419653402552 0.013790421310976853
357 0.080281792123137963 0.080281792186757961
358 0.013790419653402552 0.013790421310976853
359 0.080281792123137963 0.080281792186757961
360 0.14281758460173738 0.14281760514712422
361 0.14281758460173738 0.14281760514712422
362 0.054171050217315497 0.054171055031062842
363 0.067306332983146089 0.06730633751610493
364 0.054171050217315497 0.054171055031062842
365 0.027414686079852146 0.027414683734484913
366 0.027414686079852146 0.027414683734484913
367 0.013790419653402552 0.013790421310976853
368 0.027414686079852146 0.027414683734484913
369 0.013790419653402552 0.013790421310976853
370 0.040874369620979845 0.040874372507092416
371 0.040874369620979845 0.040874372507092416
372 0.013790419653402552 0.013790421310976853
373 0.013790419653402552 0.013790421310976853
374 0.040874369620979845 0.040874372507092416
375 0.027414686079852146 0.027414683734484913
376 0.054171050217315497 0.054171055031062842
377 0.040874369620979845 0.040874372507092416
378 0.013790419653402552 0.013790421310976853
379 0.013790419653402552 0.013790421310976853
380 0.013790419653402552 0.013790421310976853
381 0.027414686079852146 0.027414683734484913
382 0.013790419653402552 0.013790421310976853
383 0.027414686079852146 0.027414683734484913
384 0.027414686079852146 0.027414683734484913
385 0.013790419653402552 0.013790421310976853
386 0.027414686079852146 0.027414683734484913
387 0.027414686079852146 0.027414683734484913
388 0.013790419653402552 0.013790421310976853
389 0.013790419653402552 0.013790421310976853
390 0.040874369620979845 0.040874372507092416
391 0.027414686079852146 0.027414683734484913
392 0.027414686079852146 0.027414683734484913
393 0.013790419653402552 0.013790421310976853
394 0.027414686079852146 0.027414683734484913
395 0.013790419653402552 0.013790421310976853
396 0.027414686079852146 0.027414683734484913
397 0.013790419653402552 0.013790421310976853
398 0.027414686079852146 0.027414683734484913
399 0.013790419653402552 0.013790421310976853
400 0.040874369620979845 0.040874372507092416
401 0.054171050217315497 0.054171055031062842
402 0.013790419653402552 0.013790421310976853
403 0.040874369620979845 0.040874372507092416
404 0.027414686079852146 0.027414683734484913
405 0.013790419653402552 0.013790421310976853
406 0.013790419653402552 0.013790421310976853
407 0.054171050217315497 0.054171055031062842
408 0.013790419653402552 0.013790421310976853
409 0.013790419653402552 0.013790421310976853
410 0.027414686079852146 0.027414683734484913
411 0.013790419653402552 0.013790421310976853
412 0.013790419653402552 0.013790421310976853
413 0.027414686079852146 0.027414683734484913
414 0.013790419653402552 0.013790421310976853
415 0.013790419653402552 0.013790421310976853
416 0.013790419653402552 0.013790421310976853
