# #Gamma: 1.7026202410785215e-05 Node_id x y
0 0.024011089854009227 0.023123784484925247
1 0.025572639555381003 0.023126517097377786
2 0.25852064412930947 0.23255846285786322
3 0.072314341413441216 0.069520783077049286
4 0.049583840752648607 0.046356699638699199
5 0.024051894031053473 0.023151139675999056
6 0.026468902948150842 0.02318125032700416
7 0.025321988368700296 0.023176726044461887
8 0.023955463332037571 0.023162051395714988
9 0.024674193573250399 0.023167719543348095
10 0.024495817796737727 0.02316571468329371
11 0.02420297944211432 0.023169824139277418
12 0.024625072507697323 0.023173388218412586
13 0.048630293229696912 0.046355952651427265
14 0.026302838063274474 0.023197651996623523
15 0.023966719198720097 0.023174021590090386
16 0.096418106852073485 0.092833841832734576
17 0.051477135683446903 0.046444781623746392
18 0.024206216475274607 0.023189762294874631
19 0.025413294487839244 0.023207985304064958
20 0.024883013300436272 0.023205995972388895
21 0.072946423005206248 0.069626611236988531
22 0.023918464776683225 0.023187744344051107
23 0.048376068878092544 0.046402326677230543
24 0.02401120937896226 0.023191870848494073
25 0.026356693062556419 0.02322762233035848
26 0.024347344249021696 0.023195723561855473
27 0.048489824859888994 0.046447781345691587
28 0.023886104053164815 0.023200239486848549
29 0.024277166236254671 0.023214318095614025
30 0.1957567933177379 0.18636445855451361
31 0.025167758646444674 0.023222794220372163
32 0.048189565120154286 0.046480458569383758
33 0.026704604691250317 0.023276332995477201
34 0.024766303223566339 0.023257322220045444
35 0.025503655376001143 0.023281929305353451
36 0.050929210417646475 0.046536968244920485
37 0.02465707475559871 0.02324393054676329
38 0.023903274006907008 0.023215193675834449
39 0.024122578853667566 0.023235129837958557
40 0.049822964262419348 0.046586852353865067
41 0.02464137152306288 0.023242460781596919
42 0.0239461180072158 0.023223292390649197
43 0.048617832581606575 0.046482084033551377
44 0.025393261427936371 0.023296429976833288
45 0.025168780538461433 0.023299818459838591
46 0.024347719404769839 0.023261019475764425
47 0.025428846245316258 0.02332009714129666
48 0.024261209087597158 0.023260152555443395
49 0.024154643738671044 0.02324260400219421
50 0.024617028875203256 0.023287571065252012
51 0.025552033696693805 0.023329838169767039
52 0.027129558468279705 0.023348965838711908
53 0.074153265705773908 0.069958459331732864
54 0.15782480395509907 0.14044254523037064
55 0.026838214766472863 0.023405704094503942
56 0.025139688653617532 0.023340257960067372
57 0.024364342342928547 0.023320401471721885
58 0.024017028112814722 0.023280866913155687
59 0.024650679326138111 0.023328662516659104
60 0.023747757638501107 0.023274773715269863
61 0.02396299988561322 0.023294801399132235
62 0.17065492148468786 0.16353594790205536
63 0.024668219364942692 0.023358885414841886
64 0.02680563478077292 0.023468302409836689
65 0.024144260484483534 0.023319557154408671
66 0.024953875419239609 0.023356720454874722
67 0.02609512117516858 0.023444915242222371
68 0.024029942103116649 0.023289334958709274
69 0.027760362071892534 0.023507698647784576
70 0.023783302636679021 0.023293344408813241
71 0.048895215553490044 0.046689019908493452
72 0.024088143643902916 0.023347815303345044
73 0.024162908811223016 0.023309580046052523
74 0.024521662151297349 0.023344844268737935
75 0.024054867355520732 0.023329425484834247
76 0.023717104789308635 0.02331460766049329
77 0.023696169493517119 0.02331912667572833
78 0.024715725915178881 0.023385024149612649
79 0.023961573919455172 0.023340552289443928
80 0.024291492531092126 0.023374331161674262
81 0.023941279159883283 0.02333939065748538
82 0.047880696600957937 0.046638502995758245
83 0.51342325782990428 0.49573198025910414
84 0.02424070978251857 0.023418358554182152
85 0.023679569419350274 0.023353794730258712
86 0.02410867735596544 0.023337028795984965
87 0.024390526817151741 0.023418092187854976
88 0.023726463384510822 0.023328468930696435
89 0.023611207302321323 0.023340167398501595
90 0.024392697740105957 0.023372161119583016
91 0.024266712832598909 0.023429837351094877
92 0.024197422740556751 0.023370639568951104
93 0.095956272068663667 0.093777587856059538
94 0.024432916806205549 0.023453068565430134
95 0.025350443582942028 0.023533667678902276
96 0.023987413893977464 0.023410790566242838
97 0.024226447967493268 0.023370883543964865
98 0.050804488094094595 0.047134201134620829
99 0.024465188793498766 0.023465793275277425
100 0.023776353007950321 0.023392831854935039
101 0.023648996530174007 0.02337550299218779
102 0.024433099013450955 0.023417599605894866
103 0.025617546894293561 0.023545364274898613
104 0.075189329525651286 0.070656705960032665
105 0.024657298446975784 0.023465666845209926
106 0.025400994612238697 0.023577901151367507
107 0.023670016582138381 0.023370008655407549
108 0.023792494902083693 0.023374770755642833
109 0.04722891070106465 0.046770787159565397
110 0.024003853355407757 0.02344580322099676
111 0.023736409517786734 0.023390942968360248
112 0.096616073161684995 0.094008794048002303
113 0.0237284979594868 0.023407659663936001
114 0.023987081908449514 0.023446702035551305
115 0.14673585671003497 0.14102901072243212
116 0.023870918485092929 0.023446957369120898
117 0.02467861984041253 0.023532273992555055
118 0.024696948988415263 0.023494886329549308
119 0.027332599827766372 0.023789825241418032
120 0.024468693821541324 0.023490318843640029
121 0.024274644589310956 0.023509106361638971
122 0.024003086805085814 0.023482463767780095
123 0.024290441436943394 0.02349531044371804
124 0.050069259459036175 0.047197218266924336
125 0.023763970497197355 0.023418287486498122
126 0.024792975748955021 0.023531153893696848
127 0.023693095909970211 0.023430230685341391
128 0.023585166069317161 0.0234182963386237
129 0.023874586363973108 0.023472587589911546
130 0.023729607685624179 0.023433614138021617
131 0.024188952232900768 0.02351197328673205
132 0.024612278990037012 0.023556042859802805
133 0.024257354994122782 0.023481020121839485
134 0.024445628691943007 0.02356216281441887
135 0.02582186735537588 0.023704668861010594
136 0.026661086140728488 0.023737150621713058
137 0.054125508320114528 0.047669599455832316
138 0.023899730556539191 0.023445966854022067
139 0.023884740944534997 0.023445053396601596
140 0.22080567139209598 0.21312018386528001
141 0.024383909946754379 0.023513363355258617
142 0.048875290164040165 0.047233443157001079
143 0.023673073609908404 0.023491891276495785
144 0.024900605066963163 0.023671616069374138
145 0.023568637091037074 0.023460876686269491
146 0.023609364993338003 0.023453794154649984
147 0.027403157671627376 0.023909091391686212
148 0.048601635371510424 0.047123192599562172
149 0.024685492412445446 0.023651833067239218
150 0.024244124242645711 0.023580363789208861
151 0.023622671886541553 0.023502793378507743
152 0.023572007596794484 0.023485955882477597
153 0.025828008773628147 0.023825030732975143
154 0.023965664897634111 0.023562499053538709
155 0.024357386510488611 0.023621568797262214
156 0.14489182789617411 0.14166595298734014
157 0.048121797059013344 0.047094058379374172
158 0.096947474742598821 0.094654431032624164
159 0.023801352561675395 0.023536744278402365
160 0.023493719645829386 0.023505035931627106
161 0.024049356314372571 0.023611471211839929
162 0.048191189120602586 0.047201994800561434
163 0.073787710437299911 0.071053438678016889
164 0.027811612671956244 0.024150563658835066
165 0.024686379234996968 0.023708414975681019
166 0.023828399191602883 0.023530753067805298
167 0.02371711359583762 0.02352589935353128
168 0.023596137859406084 0.023544710420085952
169 0.024128592830651528 0.023622108365569976
170 0.023579470202009789 0.023520768728333346
171 0.047086340851863993 0.047099708197128769
172 0.024010793131759495 0.023591591910022566
173 0.024387496779566298 0.023675643865035415
174 0.024489450832922394 0.02371955379935119
175 0.023912391333259172 0.023563079334738661
176 0.048053269974883212 0.047266404526246766
177 0.024570266792627807 0.02373951748380625
178 0.024690451733400263 0.023760535140334944
179 0.024006552732325475 0.023588820834884863
180 0.072488575648711501 0.071089850403255897
181 0.02367777306474432 0.023580582809983375
182 0.02417255200026942 0.023674301517873468
183 0.02347441865884339 0.023546639397750396
184 0.049583574949916866 0.047607430242996442
185 0.023518608012670972 0.023544353124576999
186 0.17005282808609851 0.16642244819687443
187 0.024898008871829195 0.023791438128079073
188 0.023505368748240194 0.023556665431755379
189 0.02459052785518959 0.023754762484963388
190 0.024539960483847094 0.023768673128359157
191 0.023416171524465196 0.023557222451509954
192 0.02648831698700594 0.024115425638242479
193 0.025269973420473976 0.023896575976218148
194 0.023768726439474641 0.023627852870253433
195 0.02378490769192344 0.023623594166111435
196 0.050428665424343093 0.047742473795276935
197 0.026729189960662519 0.024177445048596598
198 0.048024041134539369 0.047334305501245601
199 0.025099721788878548 0.023913199587754019
200 0.023771552969934967 0.023656874876262668
201 0.023403653280687484 0.023571206865326252
202 0.048907736924490838 0.047610502941610428
203 0.023824345155482249 0.02367782402302681
204 0.047757764553430615 0.047418696870488844
205 0.1428703268468923 0.1423637332354275
206 0.024822429280269058 0.023895988985920665
207 0.024960307604593061 0.023914733073604852
208 0.023497268325894667 0.023622326999164722
209 0.02402126009407219 0.023726351176761046
210 0.12693017030928458 0.1200119725012284
211 0.023613766463402366 0.023667511566308089
212 0.047511892426341081 0.047417062119371321
213 0.07333382997470525 0.071637682712736628
214 0.023596010394605561 0.023645211315223968
215 0.024289051418069637 0.023828232903239759
216 0.024462835749525864 0.023864588577274467
217 0.023574456232177257 0.02366802442901747
218 0.047501830333376939 0.047479935441592069
219 0.02384115383410185 0.023728704931773922
220 0.047244414786312638 0.047398394396978648
221 0.19042958363120346 0.19055765846098349
222 0.024414636656790379 0.023885362413981842
223 0.024117724774308014 0.02382687732243681
224 0.023754094607309584 0.023728349232996528
225 0.024391386908103919 0.023905638378656065
226 0.024495158809816807 0.023870420249589543
227 0.026349862514662415 0.024297737385812295
228 0.02408792931537896 0.023833837475252261
229 0.04808366575325157 0.0476619262686621
230 0.023407513864036583 0.023663614933441691
231 0.025852226786447236 0.024199386199110245
232 0.024261193734722228 0.023871738339076902
233 0.024169560852431691 0.023860614296001718
234 0.024507521575078645 0.023902996726426734
235 0.047444093004602506 0.047508250931825119
236 0.0233891213340995 0.023683393018803667
237 0.025709329728480477 0.024179296168384341
238 0.073219361766147045 0.071800298707943633
239 0.024526599861212403 0.023974553881699542
240 0.023758603588564957 0.023754698487208872
241 0.024899171916447027 0.024067574032173963
242 0.024070354040198031 0.023842410286368767
243 0.049177342480390004 0.048023381295378552
244 0.02410030893345471 0.023896763607977631
245 0.023969317297539816 0.023840212452524535
246 0.026017407101622099 0.024285539532702002
247 0.073035834848670475 0.071989313511241979
248 0.023329986230659239 0.023705799869526346
249 0.072910963543572488 0.071963395702637864
250 0.023901425665114818 0.023871748860822804
251 0.024242014881316234 0.023903645327127254
252 0.070817422362548538 0.071445726651628919
253 0.023958171263532779 0.023895129756639807
254 0.049426354697092237 0.048193569525149658
255 0.023378084804522397 0.023740652617776685
256 0.023403681474948382 0.023747621514747054
257 0.023625055249148187 0.023810838189264751
258 0.02445370457360569 0.024034483619534426
259 0.023509445743337763 0.023783549755423183
260 0.071416582881916685 0.071674255969222139
261 0.025467090372872526 0.024317921474852528
262 0.047673308980331085 0.047765104131844933
263 0.023896426965268922 0.023869334251554193
264 0.023488591165783015 0.023789294555199101
265 0.024664694724664368 0.024123454062865573
266 0.024142275248320601 0.023980917513456785
267 0.070718991133585624 0.071466193575172393
268 0.023411102604952633 0.023778497803995293
269 0.023416894378841899 0.023770787465723156
270 0.024902237196427431 0.024198052008517108
271 0.023416349620452262 0.023790041486293108
272 0.023344818603230632 0.023763384400335187
273 0.023550565791735041 0.023826372050614029
274 0.026678767500079848 0.024694177515374359
275 0.023544594389175479 0.023829318988097162
276 0.072190618682324459 0.072079896369028854
277 0.023715972863917252 0.023885697506705203
278 0.023761541614164095 0.023872871782350053
279 0.024945721367768885 0.024253198902842648
280 0.024442288965183336 0.024118640578854447
281 0.099147616332139962 0.096971062271139968
282 0.024755401960288363 0.024204734446452988
283 0.14398698784417432 0.1443048978331116
284 0.023806647845589956 0.023951750226695396
285 0.023843053983098033 0.023952855590987195
286 0.023541585654634236 0.023872551867539088
287 0.053322699901828877 0.049653419200413697
288 0.023213075263801636 0.023793713485095971
289 0.046847206936722174 0.047730108015727135
290 0.023454046092395344 0.02386036860216963
291 0.023382111977750974 0.02384646431378587
292 0.023822319402972691 0.023994382840466143
293 0.048365713738460318 0.048151767866099683
294 0.024623220073999388 0.024237399385021324
295 0.069805807380609847 0.071513277456807578
296 0.025394496958839743 0.024451610193624792
297 0.07182113030513336 0.072241374516159085
298 0.023168827307845155 0.023807162192193112
299 0.06974060814336551 0.071548530768965377
300 0.024070059997098697 0.024114628671926316
301 0.046742588461119096 0.047751346714013237
302 0.02328310146154676 0.023839224568895725
303 0.024010877464022994 0.024107553918678797
304 0.16315100831186538 0.16741109182600206
305 0.02335014558185013 0.023889866012921208
306 0.047841806250370704 0.048214701782760855
307 0.046711172505957188 0.047793020485798449
308 0.023524518159217005 0.023958632007245469
309 0.024163841959527248 0.024186492483712567
310 0.024113992058474667 0.024150518701534715
311 0.024831291947905947 0.024423822205109285
312 0.024483662102245462 0.024299417098231853
313 0.023308367098843454 0.023885341544191946
314 0.02326421207841152 0.023870887465571922
315 0.024032666391934774 0.024151978962817341
316 0.023970482531289788 0.024146896848130553
317 0.023178627609137196 0.023847997608761076
318 0.023260994100168613 0.023884898437935509
319 0.023762786310613987 0.024038701858943638
320 0.28059328944306644 0.28817014601076174
321 0.047607822633181772 0.048141803912029969
322 0.023161863997917826 0.023870426322894104
323 0.023200031773341543 0.02387045396905883
324 0.024720487592979873 0.024471551681798129
325 0.9888392634417783 0.99416493856248023
326 0.14583302539738469 0.14662162953321642
327 0.025100913609504047 0.024691520936367617
328 0.02344635783441671 0.02414913300696114
329 0.023502595901586581 0.024210746156976461
330 0.023304114397148086 0.024084160659806057
331 0.07329264763642733 0.073352255108325534
332 0.024382401329490867 0.024466391870432147
333 0.023445498619767934 0.024077975118107931
334 0.024369140372815304 0.024436439097603319
335 0.023169653255685672 0.024079579009398732
336 0.02345278913050753 0.02419095167279757
337 0.023389957842124814 0.024131390514579944
338 0.12457510243481767 0.12354300047926897
339 0.023437556996061783 0.024198936918261832
340 0.023081857430040365 0.023994267780975555
341 0.023336587209756062 0.024089338916447642
342 0.023166192409481319 0.024040959095344806
343 0.023278883253054324 0.024105872211646714
344 0.023489549574841746 0.024223742720427984
345 0.023025195972343985 0.024027898610477761
346 0.023862953651408357 0.024483486683199343
347 0.16352596685649753 0.16887470476012464
348 0.023682255121242238 0.024180892142793883
349 0.023160695345532802 0.024021533019035909
350 0.023856888577969897 0.024435444095115302
351 0.046293589513668222 0.048114547653564828
352 0.024057078898293675 0.024560316784212638
353 0.023746591167481818 0.024453581813427699
354 0.025245396475030074 0.024912641364596085
355 0.046380469650702749 0.048136029799435306
356 0.024092996571421263 0.024498526157771486
357 0.023026883702349846 0.024045639100718743
358 0.024465148401938117 0.024790078745034829
359 0.092156416304404118 0.096219030483071719
360 0.092819108321853278 0.09661509588956986
361 0.023013952028614879 0.024087701008729673
362 0.046645043393437988 0.048527453895675497
363 0.048404976389273192 0.049155208279921855
364 0.023202892064324767 0.024242907037984228
365 0.023404396491448053 0.024350401183837144
366 0.023959052272223804 0.024451087547751663
367 0.024159221529030103 0.02457568708279817
368 0.023545260186701628 0.024411078254143022
369 0.023620499545523775 0.02425474850567589
370 0.13885123536908103 0.14463618994892982
371 0.024048492190589198 0.024631819319186041
372 0.022952535972267547 0.024074653154194086
373 0.022980442650644913 0.024040712851311433
374 0.023528137186548542 0.024312096960556417
375 0.050402976501233356 0.050119984474316877
376 0.18787459351433033 0.19556196490012615
377 0.14154867010332667 0.14605252533808472
378 0.095281042248805153 0.098693191767025581
379 0.023566621413643015 0.024497093564328758
380 0.023505721568709972 0.024448266895315717
381 0.11474951983033881 0.12068302048822617
382 0.023529535606261424 0.024456355031961328
383 0.023277244401832743 0.024290938424895773
384 0.046143464865423908 0.048493119659846769
385 0.023054410891159963 0.024169716267117749
386 0.024107133607444077 0.024828926970063843
387 0.023717095936756426 0.024446649273203429
388 0.022924698876373172 0.024075613411851365
389 0.047659083324749038 0.049449927867711158
390 0.072860989580167415 0.074453802450926268
391 0.023564022617785826 0.024612191721002458
392 0.023234302441845468 0.024201040763486753
393 0.024237320733277334 0.02473538537298994
394 0.023950829209519801 0.02482725007760694
395 0.071131387557421807 0.074278255639978363
396 0.024184129817851709 0.025032620288778333
397 0.023951821713036753 0.024774259426996605
398 0.023656168856570414 0.024476593276788777
399 0.024609237120774095 0.024973822739420639
400 0.023678356558306527 0.024567312988010886
401 0.024419090017807926 0.024889555673104576
402 0.022960396185685832 0.024241441037926598
403 0.022949712077041343 0.024228984072933245
404 0.023151065031023328 0.024331314963252079
405 0.024104142203562551 0.024951906670670054
406 0.022860522753764292 0.024140991724805525
407 0.023443877834946388 0.024352526412195336
408 0.047082759693161447 0.048904482233173369
409 0.023640883715805663 0.024657356795725092
410 0.068768328926438152 0.072470747001280908
411 0.023640885268431458 0.024490005392321837
412 0.025308729543780328 0.025537384767550436
413 0.16329492945433785 0.17051729651139266
414 0.022915652053780187 0.024171734007139262
415 0.88055735050093409 0.91895804713493456
416 0.024329208611265741 0.025264942546452868
417 0.022863122503291203 0.024262070272261984
418 0.068961827961817296 0.072969022296010599
419 0.023206551060398463 0.024432737978404801
420 0.023554361707113607 0.024887242232314841
421 0.024005542173832516 0.025236591684328336
422 0.022866014512447547 0.024379990211444179
423 0.022824085419197004 0.024340446812480744
424 0.023125453800595164 0.024546787318169148
425 0.21276179644210783 0.22360550313053368
426 0.023119264088108916 0.024601015060122178
427 0.02285768453093039 0.024301443754307667
428 0.16204099886889337 0.17276658053169175
429 0.11518324428681344 0.12290156643934234
430 0.023367191374557238 0.024679411257279172
431 0.045798788809126037 0.048735476802317088
432 0.023038117972512311 0.024579699931330697
433 0.022960889577482123 0.024531632949839222
434 0.04774351413337035 0.050522979171526386
435 0.023691263885352403 0.02512313614287312
436 0.023539627649264157 0.024838878475305397
437 0.023618378836550481 0.025067772684271867
438 0.045935635729718045 0.049112277322157255
439 0.023704079855634025 0.025041403270088764
440 0.046256531935136444 0.049297556553746853
441 0.02518318546281402 0.026113774989401879
442 0.023927625967875437 0.025223448042319529
443 0.022795940140361921 0.02443282508319532
444 0.072603546170874986 0.076163041108175539
445 0.046207679137210772 0.049187173684386194
446 0.023310944199723783 0.024861655745509543
447 0.161040120391091 0.17272122832781328
448 0.023138438991904896 0.024607930425097589
449 0.047803915329857956 0.050430086415254184
450 0.022818190953282174 0.024459798521893065
451 0.022835223766465608 0.024442196353730586
452 0.022765115300557168 0.024367344426688104
453 0.023115452363302515 0.024792322211179114
454 0.046040890406424367 0.049193507947010134
455 0.045936534482316764 0.049050555634929514
456 0.023240772722630657 0.024715269547127109
457 0.023112873638490471 0.02461153368550649
458 0.069199707628880447 0.074035330784213163
459 0.022817347774787378 0.024453239265553633
460 0.024177508132451439 0.025505703347485812
461 0.022992092047960405 0.024583490276479585
462 0.022660501290605529 0.024348134135248424
463 0.023980954425755353 0.025334319470533332
464 0.022820280167721599 0.024459641194318725
465 0.022943362801380006 0.024552245898618461
466 0.022804572604677793 0.024419632073831396
467 0.023097780083304393 0.024816621563366524
468 0.022921877710970422 0.024654114234137627
469 0.092152957892417689 0.099078387601802695
470 0.023368333237456747 0.024974465674719844
471 0.023078164170842599 0.024636301218490992
472 0.024307721887215854 0.025944682488005397
473 0.022753859126307879 0.024536883328053538
474 0.023889759043272663 0.025374332647297285
475 0.023222156082367586 0.024954487161725009
476 0.045860788418046104 0.049118267968322381
477 0.02339174619873078 0.024985289814966113
478 0.04545762769501259 0.048954922543119582
479 0.02280578079433259 0.024519055406212978
480 0.04545057382321787 0.048864906645507862
481 0.047590212397273603 0.051065893344571456
482 0.022671750107367463 0.024425339225828385
483 0.023687995448781887 0.025211870947992876
484 0.022717335732890781 0.024432253390241489
485 0.02281823927423423 0.024602264268231994
486 0.023145137475835881 0.024845708090991687
487 0.022740002731620298 0.024445478717918641
488 0.022768191838937604 0.024554123446965614
489 0.045444354946833458 0.049136494167752745
490 0.024415811161913263 0.026167039892525595
491 0.022848026446046912 0.024590823827896707
492 0.023421279130492651 0.025039551257882143
493 0.023015454500570794 0.024674916930784305
494 0.046119547686485483 0.049437169775825462
495 0.023546349420509548 0.025185356623578074
496 0.023753066139625075 0.025394248897570984
497 0.067977479557079584 0.073569803909638465
498 0.023394270118226736 0.025029259076192731
499 0.045492459818811379 0.048979877868080807
500 0.022604316703132472 0.024413391424381765
501 0.022779253291119381 0.024516828367356625
502 0.046911455870635013 0.050534769830813439
503 0.023000089080757419 0.024890448048434242
504 0.045599872506230439 0.04912402847537517
505 0.022739999162043372 0.024567914629814482
506 0.022713910285613856 0.024501640078874367
507 0.02271582750434448 0.024542183007735963
508 0.068272639378729683 0.073977991734843512
509 0.022571187101109266 0.024442057556617887
510 0.023109138292287515 0.024873145249594896
511 0.023149464153590354 0.02501234111656889
512 0.023128019201571957 0.02485490639705568
513 0.070725566881512061 0.076544458506767901
514 0.022610152174053474 0.024517814573395306
515 0.022717688071275895 0.024563453003575635
516 0.3479319034164311 0.37448054134938441
517 0.047536350518587747 0.051099966891074336
518 0.2042617451044961 0.22163813182501182
519 0.045272012171279893 0.049381509201641804
520 0.023158448578661985 0.025028102373530179
521 0.0227175834513219 0.024561734823044714
522 0.022532403147515114 0.024523415318379819
523 0.022822824958832415 0.024807661751379391
524 0.023158495289121766 0.025094895432309132
525 0.022798427164714242 0.024960863919753735
526 0.022847248192961203 0.024690177603440406
527 0.022599558973753014 0.02462532667682164
528 0.022663208112064098 0.024754799627805142
529 0.02283182200901681 0.024861991710156142
530 0.023144951317818668 0.025161726789691221
531 0.023029832704732529 0.025093113344819173
532 0.022516167226629254 0.024511604334764688
533 0.02304323700193172 0.024928915605768587
534 0.022804936085586713 0.024901534778978877
535 0.023068473659360638 0.024933753131941683
536 0.022865957861292925 0.024797946578986558
537 0.022572024048806077 0.024644295785203125
538 0.045234667573800159 0.049452584836297608
539 0.068599387975498347 0.074803532133006626
540 0.02277307010318276 0.024728882858351262
541 0.023914024806837093 0.025934768371906433
542 0.022879346637650406 0.024776815705571331
543 0.022739691806409064 0.024861413446074232
544 0.023366043399601501 0.025326556198991986
545 0.068851340807279338 0.075243311697059459
546 0.023016685532654322 0.025219625832256946
547 0.022512937928215779 0.02451342582405407
548 0.071294002423452935 0.077352915761735919
549 0.02258574182324756 0.024576719802149014
550 0.023830130385743296 0.02626064360232757
551 0.022567763621937454 0.024565390336553288
552 0.022761344969304494 0.024864897485936628
553 0.18411001007606073 0.20028692191996422
554 0.023196146121175522 0.025217134253550561
555 0.022618245019315669 0.024863985494139304
556 0.023264755286907343 0.025506170465808192
557 0.1185655776418868 0.1314074057807666
558 0.023055897799918526 0.025206005236795097
559 0.022769544686133628 0.02505919643047598
560 0.046627545565074272 0.051549691300788306
561 0.13622079505001025 0.14869082887666632
562 0.023866147565899276 0.026136378480655632
563 0.022515804847523743 0.024782785573977836
564 0.023186111558190576 0.025386086561521928
565 0.022784236579977926 0.024827706026029697
566 0.045569193801953248 0.050257726445783628
567 0.044950919494365638 0.049363423314641892
568 0.023589304852235836 0.026066732507923962
569 0.022859820702408221 0.0253467327316978
570 0.02243661249346398 0.024629408635261099
571 0.023056305113132808 0.025487179923933387
572 0.023764064910721333 0.026518660643511417
573 0.022679073330795496 0.025025302617357598
574 0.047087134468381371 0.051695559662374858
575 0.022697996647739721 0.024890474327727331
576 0.022512338661530337 0.024683850876840531
577 0.046051885969248009 0.050434564650663025
578 0.045011454539151181 0.049702006790297813
579 0.022822423404021568 0.025352663487917967
580 0.022414502170652401 0.024605012567187293
581 0.044997156916242953 0.04966824664416597
582 0.069421059004735622 0.076820165649335845
583 0.022661983253626009 0.024799698563479168
584 0.022570705339020496 0.024895276647959892
585 0.090469937606778933 0.099493537945848837
586 0.022390240461909565 0.024639025898801167
587 0.022545268849789336 0.024819988385493201
588 0.022728196946210817 0.025095648054301124
589 0.022684259205220769 0.02485343408417421
590 0.02253029914377308 0.02494921856362663
591 0.046170090168846163 0.051021843048810488
592 0.022993513832057805 0.02569424833749517
593 0.022451965237357749 0.024768956272751219
594 0.023763890484512249 0.026696692925441825
595 0.022387143161161749 0.024697018688555929
596 0.022461129907513117 0.024694953158954043
597 0.022502704069649142 0.024857418694642992
598 0.022473521814226582 0.024849703874238575
599 0.023805875996107062 0.026672570699716711
600 0.02255906840034809 0.024840479171719346
601 0.069027420323797287 0.076626642493912892
602 0.022578001351199008 0.024872063702815344
603 0.13723688410047855 0.15087629303618
604 0.023002959869467821 0.025388778127410406
605 0.022698849290768052 0.024956178992238422
606 0.022977128581199387 0.025445014380042538
607 0.023096410571873872 0.025868374115764609
608 0.022890312908313049 0.025469006426850137
609 0.022687113952819384 0.025230791544723307
610 0.045384385060585113 0.050362094908538123
611 0.02328402136667931 0.026197494615101246
612 0.045244763617956707 0.04994223975379046
613 0.022860783601809771 0.025220945643946151
614 0.067326228427960405 0.074446572873327621
615 0.045240552108274462 0.050116381652624463
616 0.022850297038910859 0.025259669295035134
617 0.044989823567418978 0.049558203229887257
618 0.02392181264756878 0.027230911322332581
619 0.046814204720838984 0.052818500005928366
620 0.022509569918850895 0.02494604728704708
621 0.022324795026579324 0.024704374884950957
622 0.023038045143914158 0.025691134646851209
623 0.022789643993680234 0.025352740166487097
624 0.18099982249808275 0.20014877129233272
625 0.022774606603115428 0.025463499571573265
626 0.02339716406396292 0.026274583753380463
627 0.023467939228199518 0.026490835331220292
628 0.045689495510405513 0.050653994421694763
629 0.022740372440746549 0.025324715179410508
630 0.046884840160827577 0.052487295767794838
631 0.022325348839869651 0.024749401242998289
632 0.023371749419566299 0.026183956356257886
633 0.022469039763413075 0.024991933824526132
634 0.022446027436038914 0.02480558682428741
635 0.022366329614405558 0.02474621912457993
636 0.022304691354744277 0.024879104242662122
637 0.023112061842716174 0.025789314499747498
638 0.02253525359194411 0.024913592373101683
639 0.022372282113396608 0.024939768844600096
640 0.023554896853752779 0.027169080530814804
641 0.022802976530146485 0.025279234580689851
642 0.022589533829934515 0.025093673686491538
643 0.022292461294905964 0.024754342318245179
644 0.023387425712044302 0.026259398639973754
645 0.022452591100741711 0.025178275005493002
646 0.045244788267912006 0.051231150950166136
647 0.023046121665397476 0.025838726670635258
648 0.0230218266426628 0.025688182328909171
649 0.0460194955521799 0.05129733950524102
650 0.02228585385031872 0.024912535073124902
651 0.045293817759372176 0.050248122582102143
652 0.022598592690613269 0.025364874132000403
653 0.02233636539062344 0.025012137552097254
654 0.022608213650557419 0.025239108243610035
655 0.022625668404080475 0.025160660862444031
656 0.047225357536126576 0.05473669690264598
657 0.022413541429361618 0.025022418202426087
658 0.022641164918110579 0.025772755387228972
659 0.022361329394224781 0.025083640221893092
660 0.044651452003723245 0.050191012304237136
661 0.022379520769192477 0.02514098284705275
662 0.044676295766464945 0.050090687495618721
663 0.24783583871087758 0.27616100628616363
664 0.022725829750135755 0.02545822231208526
665 0.022298866279171978 0.025081601037731629
666 0.20141790706194662 0.22481048623472599
667 0.022281497446758846 0.024824673341874822
668 0.044506483009004831 0.049711407485134855
669 0.022327697060425707 0.024868245960824237
670 0.068473768580209149 0.078145012510318052
671 0.06681231154359589 0.074528393189594144
672 0.044822320726397684 0.049917775236394554
673 0.022698729001240977 0.025409083996572997
674 0.022266082276599541 0.025057779678363062
675 0.022341120674064307 0.025431908877905529
676 0.022723831658044265 0.026102621237523934
677 0.022331186069353512 0.024876022733625651
678 0.044842720779409879 0.049964040526300123
679 0.022813696384737504 0.025747633997425818
680 0.022713550211029956 0.025962689611863099
681 0.022300225719894224 0.024878631173839275
682 0.022376756171420341 0.025068048338853378
683 0.022685595446349904 0.025442163723626045
684 0.067437305941594139 0.075462276362295785
685 0.04446327908304859 0.049974336002241854
686 0.045464330389119748 0.052515491507721737
687 0.18122172651570112 0.20322708187053434
688 0.022237435627373705 0.02523998430194346
689 0.044858509366120077 0.050449963442911673
690 0.022298587883113046 0.024981448709118354
691 0.023218583537063887 0.027083719905020089
692 0.022350559967609693 0.025083861238429084
693 0.02233328946016953 0.025617972421303495
694 0.022594753955304636 0.025361794110028962
695 0.022766059374457432 0.026046288604625413
696 0.022169497012946557 0.02487411728486184
697 0.022334475613597339 0.024965419333759661
698 0.022933151588830875 0.026082018646818618
699 0.022796280695459876 0.025932794250105907
700 0.023005732653287286 0.026254221781309213
701 0.022740321173370995 0.0256820065776533
702 0.067604829761319873 0.075943648621621715
703 0.022411265285888098 0.025587664786328811
704 0.045469800113637798 0.051384728424862976
705 0.022143468499309663 0.024994823627707437
706 0.023486008073634861 0.027439675247623946
707 0.044649738080347959 0.049968799725032431
708 0.022171165006899442 0.024943546299336785
709 0.02220317947908132 0.02490267189015161
710 0.022487093797537269 0.025241942160273648
711 0.022264289144239422 0.025397220852120522
712 0.11175770337274683 0.12594072208783955
713 0.022203568575648338 0.024893932648199724
714 0.022574879720378242 0.025760896572362892
715 0.04580224207649132 0.052986021013905732
716 0.022220219710413006 0.025311856485922064
717 0.023587525086687166 0.028559603152397625
718 0.044555484375113051 0.050176687367509354
719 0.088768130943766038 0.10013006715526958
720 0.022623648679662437 0.026042541537539772
721 0.02216058568674167 0.025157605626683205
722 0.02215852886992873 0.024955792808662679
723 0.022602766100247813 0.026064101492150816
724 0.044584801567724139 0.050118965224578316
725 0.044270096889266024 0.050109782924980945
726 0.022515219742249636 0.02607870638771545
727 0.02211668826742794 0.025206485653309567
728 0.044256591895433121 0.049891921530232072
729 0.022179185025330461 0.025184851086157617
730 0.022164484861942703 0.025007143787815513
731 0.022921927690738544 0.026438983326368994
732 0.022325625966698005 0.025579410128641726
733 0.022690031996577723 0.025986569026079348
734 0.11546026799817094 0.13463996399173678
735 0.044711819741733008 0.051534774904747456
736 0.022367697698796072 0.025295748888454248
737 0.022094978897641438 0.025243076986665062
738 0.022316715208800565 0.025135023475116883
739 0.068351084938864368 0.081535929064368406
740 0.022430403903120521 0.025371314807780924
741 0.022268136504987976 0.025133207852867646
742 0.022077368288771864 0.025155141082738027
743 0.022417683009214696 0.025403439273270035
744 0.022292416413176783 0.025180691133146908
745 0.04534996141924906 0.052933999341493496
746 0.022080091484526644 0.025264560830680374
747 0.044348131169543115 0.050011301660147063
748 0.022097054464815195 0.02548626884352706
749 0.022373911580000523 0.026296230461117533
750 0.022204331373851569 0.025143622681070985
751 0.29377363362011499 0.33474569515594688
752 0.022165644836749938 0.025023516400167742
753 0.022162987256869802 0.025186738350683326
754 0.066710291282155207 0.076887421967990061
755 0.022301372247926353 0.025707201156547996
756 0.022509963154052088 0.026945934450240669
757 0.022042007254387069 0.025411422443519592
758 0.044930206627868362 0.052596077988319341
759 0.02207677813237886 0.025020054871794626
760 0.022161425747006785 0.025800314691667939
761 0.02206488414983087 0.025091643045583537
762 0.022346703347402783 0.02562867570437229
763 0.022364555008274504 0.025422120566601016
764 0.022220957265300729 0.025401794249390871
765 0.022131191977232661 0.025837214497913239
766 0.044594269498374341 0.051359943521781151
767 0.022051801796724446 0.025033853503616903
768 0.022065919583935809 0.025257259559710657
769 0.17706821035470718 0.20517022217956613
770 0.022033318323512643 0.025021603315432885
771 0.02255698859890443 0.02604383698791117
772 0.022089475617967622 0.025369586501611419
773 0.022471322129025553 0.026228328101831531
774 0.022048563786060613 0.025038204940905938
775 0.11204068239751089 0.12998659744952651
776 0.021986537132303505 0.025179564678890331
777 0.022012034910030034 0.0252802869770564
778 0.022286391018326909 0.025437789126141072
779 0.022336810247904966 0.02668259013491418
780 0.044865652607220467 0.053425063943090385
781 0.022393296081161088 0.025769515583536726
782 0.043978163037725074 0.050485011686052933
783 0.15491309421631499 0.17598259843951619
784 0.021970966536565762 0.025252859593633058
785 0.022549040311918098 0.026459624981468609
786 0.022091441149215008 0.025603847304195768
787 0.022373797610917179 0.025780024133679545
788 0.044173798628409804 0.050865932411611192
789 0.022379805519387744 0.025760572479143679
790 0.022518820149148577 0.026260396636763633
791 0.022279156063341111 0.02602618951786654
792 0.13224706009271528 0.15092468810116375
793 0.022512528307655707 0.026344615312083139
794 0.044045643453257927 0.050854993827589179
795 0.022331630126780824 0.026335371214276197
796 0.022082062145472724 0.025232453856679757
797 0.13481543508113461 0.15843815083734786
798 0.022643728812823463 0.027538646130523047
799 0.088144860272986916 0.104428701512262
800 0.044117401502766232 0.050392504820685934
801 0.022244739034677039 0.02557648008597747
802 0.022756196124641605 0.028281359523138486
803 0.0229542288453451 0.028159007834076384
804 0.02200970902117828 0.025248417661244592
805 0.022244585870060819 0.025832082079908524
806 0.022194155430122178 0.025451293198936593
807 0.021967409710026302 0.025120861019845869
808 0.022069298978272426 0.02520196537835304
809 0.021914577678722739 0.025267016092735295
810 0.022205994203003319 0.02582217102022925
811 0.044285792312011296 0.051042855599997404
812 0.04454948810611508 0.05345310568932797
813 0.022047235430082319 0.02548095761998069
814 0.022157460842624408 0.025989342240258975
815 0.044385028849814663 0.051051039808936514
816 0.06609664110319638 0.075522635821260467
817 0.021998007490718775 0.025480368546908799
818 0.022174947125716323 0.025508390097356462
819 0.022067114954204558 0.02542415185867002
820 0.022023577589409038 0.025467318607669858
821 0.2701024326645029 0.33263043414716953
822 0.022087254020394961 0.025797535280799259
823 0.1097596291273986 0.1282751507365103
824 0.065985888945776061 0.075738029965040449
825 0.021974368214754535 0.025245537376477618
826 0.021934755319393519 0.025470517220577329
827 0.11034706627193454 0.12701559858943812
828 0.087621367115387969 0.10145567052550146
829 0.021869868137640136 0.025231602719224835
830 0.021888313905035154 0.025917675687114488
831 0.021921722463793706 0.025776548732656779
832 0.021897459514206442 0.025857076774116552
833 0.022379098587392527 0.026751635199364836
834 0.022398209182394917 0.026867367422230563
835 0.022280647879082422 0.027065955844963647
836 0.043925010732697049 0.051663169420489388
837 0.022249726189643028 0.026255675692023708
838 0.021913482802232639 0.026066627423882476
839 0.043864705527778686 0.05061000988094707
840 0.022157355047506468 0.026813576763356148
841 0.087529490510371538 0.102415012965584
842 0.022043581262563967 0.026813720028654637
843 0.022053009062887256 0.026005941934631533
844 0.043771450136200866 0.050675052705459613
845 0.022048771921479096 0.025638479689162816
846 0.02199651152139068 0.026152382569706721
847 0.022252491507872757 0.026522770227769145
848 0.022196754003498305 0.026146566119112348
849 0.087488414085352739 0.10276035716724598
850 0.021842528453031744 0.025434277918154169
851 0.022028089309699749 0.025849520074578202
852 0.17723241782001858 0.21290807762051506
853 0.043701605721933136 0.050541356245975708
854 0.021969153297788944 0.026098996246610273
855 0.021910461439348401 0.025401451942029425
856 0.021803620880842575 0.025875440427418506
857 0.022033226372464687 0.025831022621491551
858 0.022030277077485113 0.025739627174875237
859 0.021925653735812362 0.025718939562412446
860 0.021813046069515875 0.025438704999890472
861 0.021855041868404635 0.025951097130460846
862 0.021854670031588225 0.025261868379074317
863 1.1522332799131358 1.3665568438843569
864 0.021807695039662556 0.026820028331806078
865 0.021990946860200367 0.026802563903145425
866 0.021794843567092576 0.025436183738456051
867 2.8837632437074316 3.4956464593284169
868 0.02163668278824012 0.02637541402114733
869 0.021605750177171715 0.025912718713357694
870 0.021621573456629916 0.026031107328486989
871 0.021589692875295437 0.025707097885499446
872 0.021678269427854221 0.026367936244659197
873 0.021597376060548214 0.025866761247841267
874 0.06483405007812347 0.0767124783483671
875 0.021633199178870577 0.02610154203640223
876 0.021588930200805125 0.025764944076217364
877 0.021595493205607191 0.025608838794063983
878 0.021626409721697559 0.02590948823025524
879 0.02158876334372806 0.025600955810545716
880 0.043214456134246251 0.051291621106316673
881 0.02160315887331353 0.026183833728177359
882 0.021671075215953503 0.02654388377997486
883 0.021738032607997278 0.027474723704491874
884 0.021660693383693704 0.026607401745603478
885 0.043308648442360591 0.053059116117451552
886 0.043195232067187318 0.051847825646581275
887 0.021737722348901024 0.027694831747122547
888 0.021654386834504144 0.026471929765312326
889 0.021691604818342033 0.027344620051567806
890 0.021596404800634451 0.025806381873406378
891 0.021559948574740018 0.025767564632232506
892 0.021588003757342468 0.026070808297337513
893 0.021651834990264029 0.027255857197113521
894 0.021577911638736052 0.026188054755763919
895 0.34928033222092325 0.44361148316342414
896 0.043224790506027802 0.05333525681802246
897 0.021554437684394478 0.026550049190722819
898 0.021555086791334416 0.026569315947363063
899 0.021543566245021972 0.02617880198730058
900 0.021565602146496648 0.026187127343748343
901 0.021529784468251555 0.026072341367504064
902 0.02155332908929955 0.026314377348302866
903 0.021513389545900683 0.02562562850385532
904 0.021545388707655353 0.025962760866218893
905 0.021619309361723963 0.028029937886541092
906 0.021557882945066935 0.026442294136731982
907 0.021572659317029792 0.026750023672391265
908 0.021557628884361586 0.026547510925530263
909 0.021528648281318605 0.025934411239384648
910 0.021647223106185758 0.028248353997501804
911 0.021613197345652618 0.027634786348786227
912 0.021503126902912631 0.025693121298034863
913 0.021608977466881781 0.027567783076232595
914 0.021535662029131989 0.026047268404785565
915 0.043138122730002233 0.053724098227787211
916 0.021494404797417117 0.025754486811641605
917 0.021552098972080238 0.026623517252546261
918 0.02151236644427721 0.025887809040541283
919 0.021495383162413655 0.025945292510533742
920 0.021529212435040846 0.02624425138286288
921 0.043050248174939354 0.051803984045145621
922 0.021515724936002494 0.026127749265289161
923 0.021545513033387809 0.027125893867779787
924 0.021597987352537509 0.027926443273103497
925 0.021631339309292539 0.029214144141536343
926 0.021636327808894049 0.030625050198827213
927 0.021476635950601657 0.025782818304172461
928 0.021477048501010794 0.025799393331402763
929 0.021528916739130013 0.027057848650188111
930 0.021474447318580316 0.02574391380948815
931 0.021477564900000978 0.025987055938487075
932 0.021480835947458119 0.025693565052496183
933 0.021519679773210981 0.027177270638953383
934 0.043062356718875386 0.053516572482621538
935 0.021509588148831676 0.026354382132593866
936 0.021481457449445157 0.025873871963732399
937 0.021483448151799513 0.026447904884972361
938 0.021544801084754466 0.027462915368309571
939 0.021500827912165253 0.027162508493399701
940 0.04296148930599121 0.051548878074739471
941 0.021462245666890662 0.025886652608194814
942 0.021470118288957861 0.026081242142281046
943 0.021469343576870505 0.025732296311978941
944 0.02146662738495005 0.02587461400749947
945 0.021459660759336266 0.025972186032321338
946 0.042988932678559265 0.054302619865923399
947 0.021463933240044041 0.026091440633548749
948 0.021513798833931754 0.027377603857196293
949 0.021501047209335954 0.02815367617697519
950 0.021466743028221772 0.026153035490249468
951 0.086053073094930252 0.10913889180173852
952 0.021446332518833038 0.025779092091660315
953 0.04298981121995777 0.054000523179930711
954 0.021457192955355628 0.026698919238430922
955 0.021444519425385122 0.026109809857284279
956 0.021478392504411158 0.0271625268250755
957 0.02144442421624462 0.025904899125222258
958 0.02145473256543682 0.026753757142409067
959 0.085928634811247281 0.10525668630981655
960 0.021474975117346404 0.027668378036645649
961 0.021429531355099576 0.025731817964358368
962 0.021449233326886221 0.026666171634071943
963 0.021465540442220724 0.02751893582540518
964 0.02145062393710194 0.026720300493928401
965 0.021426325454820594 0.026027342265341119
966 0.021465170180015182 0.027783002706221062
967 0.02145550137552716 0.027105631262078982
968 0.021435950440500177 0.026365780625074331
969 0.021425299563771708 0.02637470870390024
970 0.042884351964395703 0.053761117240733527
971 0.021421141329799276 0.025932336239392305
972 0.021452021320385335 0.027692899382964244
973 0.02146210521095741 0.028607695301348202
974 0.021415336245789403 0.025962921992187592
975 0.021426836540758318 0.026530163694234818
976 0.042903261999793468 0.054899308868989097
977 0.02140925551285798 0.02684855749923792
978 0.021402800023472016 0.025860478766172274
979 0.042875177556412868 0.058059382300968534
980 0.021403543254445635 0.025914205503307742
981 0.042821445005149811 0.051681055282839068
982 0.021403010345991309 0.027045030892463712
983 0.02140210629562201 0.027853180379476251
984 0.042844412240547865 0.05399708550975979
985 0.021396633622933845 0.027335610097822208
986 0.021403892849372615 0.027767411144289385
987 0.042856046359208373 0.062396975122356597
988 0.021397376042202026 0.027331875367724013
989 0.021377206616283586 0.026834983212475721
990 0.021389449193093463 0.026686627104841279
991 0.021373020795753414 0.026404604889549526
992 0.085633503326865784 0.10491407940367725
993 0.064205618384298696 0.087303646558820031
994 0.021371009051811041 0.029733922429387851
995 0.02136700954985802 0.027349746421000392
996 0.021363830600178692 0.026793324793669162
997 0.042739494086705972 0.054477894510494465
998 0.021356613179040199 0.026131170701569787
999 0.042731099889351171 0.052690794729597888
