# #Lamda: 0.77032662076117631 Node_id x y
0 0.022411128792875181 0.031184617557350174
1 0.022411128792875181 0.031184617557350174
2 0.22152844276161451 0.30825220047785767
3 0.06702623786376101 0.093265609840855232
4 0.04475142834733413 0.062270677709034439
5 0.022411128792875181 0.031184617557350174
6 0.022411128792875181 0.031184617557350174
7 0.022411128792875181 0.031184617557350174
8 0.022411128792875181 0.031184617557350174
9 0.022411128792875181 0.031184617557350174
10 0.022411128792875181 0.031184617557350174
11 0.022411128792875181 0.031184617557350174
12 0.022411128792875181 0.031184617557350174
13 0.04475142834733413 0.062270677709034439
14 0.022411128792875181 0.031184617557350174
15 0.022411128792875181 0.031184617557350174
16 0.0892407498493729 0.12417663921812813
17 0.04475142834733413 0.062270677709034439
18 0.022411128792875181 0.031184617557350174
19 0.022411128792875181 0.031184617557350174
20 0.022411128792875181 0.031184617557350174
21 0.06702623786376101 0.093265609840855232
22 0.022411128792875181 0.031184617557350174
23 0.04475142834733413 0.062270677709034439
24 0.022411128792875181 0.031184617557350174
25 0.022411128792875181 0.031184617557350174
26 0.022411128792875181 0.031184617557350174
27 0.04475142834733413 0.062270677709034439
28 0.022411128792875181 0.031184617557350174
29 0.022411128792875181 0.031184617557350174
30 0.17759321793053809 0.24711725291158684
31 0.022411128792875181 0.031184617557350174
32 0.04475142834733413 0.062270677709034439
33 0.022411128792875181 0.031184617557350174
34 0.022411128792875181 0.031184617557350174
35 0.022411128792875181 0.031184617557350174
36 0.04475142834733413 0.062270677709034439
37 0.022411128792875181 0.031184617557350174
38 0.022411128792875181 0.031184617557350174
39 0.022411128792875181 0.031184617557350174
40 0.04475142834733413 0.062270677709034439
41 0.022411128792875181 0.031184617557350174
42 0.022411128792875181 0.031184617557350174
43 0.04475142834733413 0.062270677709034439
44 0.022411128792875181 0.031184617557350174
45 0.022411128792875181 0.031184617557350174
46 0.022411128792875181 0.031184617557350174
47 0.022411128792875181 0.031184617557350174
48 0.022411128792875181 0.031184617557350174
49 0.022411128792875181 0.031184617557350174
50 0.022411128792875181 0.031184617557350174
51 0.022411128792875181 0.031184617557350174
52 0.022411128792875181 0.031184617557350174
53 0.06702623786376101 0.093265609840855232
54 0.13350876311284993 0.1857746549362877
55 0.022411128792875181 0.031184617557350174
56 0.022411128792875181 0.031184617557350174
57 0.022411128792875181 0.031184617557350174
58 0.022411128792875181 0.031184617557350174
59 0.022411128792875181 0.031184617557350174
60 0.022411128792875181 0.031184617557350174
61 0.022411128792875181 0.031184617557350174
62 0.15557170745185664 0.21647478109949181
63 0.022411128792875181 0.031184617557350174
64 0.022411128792875181 0.031184617557350174
65 0.022411128792875181 0.031184617557350174
66 0.022411128792875181 0.031184617557350174
67 0.022411128792875181 0.031184617557350174
68 0.022411128792875181 0.031184617557350174
69 0.022411128792875181 0.031184617557350174
70 0.022411128792875181 0.031184617557350174
71 0.04475142834733413 0.062270677709034439
72 0.022411128792875181 0.031184617557350174
73 0.022411128792875181 0.031184617557350174
74 0.022411128792875181 0.031184617557350174
75 0.022411128792875181 0.031184617557350174
76 0.022411128792875181 0.031184617557350174
77 0.022411128792875181 0.031184617557350174
78 0.022411128792875181 0.031184617557350174
79 0.022411128792875181 0.031184617557350174
80 0.022411128792875181 0.031184617557350174
81 0.022411128792875181 0.031184617557350174
82 0.04475142834733413 0.062270677709034439
83 0.46171978331057728 0.64247343336764418
84 0.022411128792875181 0.031184617557350174
85 0.022411128792875181 0.031184617557350174
86 0.022411128792875181 0.031184617557350174
87 0.022411128792875181 0.031184617557350174
88 0.022411128792875181 0.031184617557350174
89 0.022411128792875181 0.031184617557350174
90 0.022411128792875181 0.031184617557350174
91 0.022411128792875181 0.031184617557350174
92 0.022411128792875181 0.031184617557350174
93 0.0892407498493729 0.12417663921812813
94 0.022411128792875181 0.031184617557350174
95 0.022411128792875181 0.031184617557350174
96 0.022411128792875181 0.031184617557350174
97 0.022411128792875181 0.031184617557350174
98 0.04475142834733413 0.062270677709034439
99 0.022411128792875181 0.031184617557350174
100 0.022411128792875181 0.031184617557350174
101 0.022411128792875181 0.031184617557350174
102 0.022411128792875181 0.031184617557350174
103 0.022411128792875181 0.031184617557350174
104 0.06702623786376101 0.093265609840855232
105 0.022411128792875181 0.031184617557350174
106 0.022411128792875181 0.031184617557350174
107 0.022411128792875181 0.031184617557350174
108 0.022411128792875181 0.031184617557350174
109 0.04475142834733413 0.062270677709034439
110 0.022411128792875181 0.031184617557350174
111 0.022411128792875181 0.031184617557350174
112 0.0892407498493729 0.12417663921812813
113 0.022411128792875181 0.031184617557350174
114 0.022411128792875181 0.031184617557350174
115 0.13350876311284993 0.1857746549362877
116 0.022411128792875181 0.031184617557350174
117 0.022411128792875181 0.031184617557350174
118 0.022411128792875181 0.031184617557350174
119 0.022411128792875181 0.031184617557350174
120 0.022411128792875181 0.031184617557350174
121 0.022411128792875181 0.031184617557350174
122 0.022411128792875181 0.031184617557350174
123 0.022411128792875181 0.031184617557350174
124 0.04475142834733413 0.062270677709034439
125 0.022411128792875181 0.031184617557350174
126 0.022411128792875181 0.031184617557350174
127 0.022411128792875181 0.031184617557350174
128 0.022411128792875181 0.031184617557350174
129 0.022411128792875181 0.031184617557350174
130 0.022411128792875181 0.031184617557350174
131 0.022411128792875181 0.031184617557350174
132 0.022411128792875181 0.031184617557350174
133 0.022411128792875181 0.031184617557350174
134 0.022411128792875181 0.031184617557350174
135 0.022411128792875181 0.031184617557350174
136 0.022411128792875181 0.031184617557350174
137 0.04475142834733413 0.062270677709034439
138 0.022411128792875181 0.031184617557350174
139 0.022411128792875181 0.031184617557350174
140 0.19957747608006668 0.27770788888584796
141 0.022411128792875181 0.031184617557350174
142 0.04475142834733413 0.062270677709034439
143 0.022411128792875181 0.031184617557350174
144 0.022411128792875181 0.031184617557350174
145 0.022411128792875181 0.031184617557350174
146 0.022411128792875181 0.031184617557350174
147 0.022411128792875181 0.031184617557350174
148 0.04475142834733413 0.062270677709034439
149 0.022411128792875181 0.031184617557350174
150 0.022411128792875181 0.031184617557350174
151 0.022411128792875181 0.031184617557350174
152 0.022411128792875181 0.031184617557350174
153 0.022411128792875181 0.031184617557350174
154 0.022411128792875181 0.031184617557350174
155 0.022411128792875181 0.031184617557350174
156 0.13350876311284993 0.1857746549362877
157 0.04475142834733413 0.062270677709034439
158 0.0892407498493729 0.12417663921812813
159 0.022411128792875181 0.031184617557350174
160 0.022411128792875181 0.031184617557350174
161 0.022411128792875181 0.031184617557350174
162 0.04475142834733413 0.062270677709034439
163 0.06702623786376101 0.093265609840855232
164 0.022411128792875181 0.031184617557350174
165 0.022411128792875181 0.031184617557350174
166 0.022411128792875181 0.031184617557350174
167 0.022411128792875181 0.031184617557350174
168 0.022411128792875181 0.031184617557350174
169 0.022411128792875181 0.031184617557350174
170 0.022411128792875181 0.031184617557350174
171 0.04475142834733413 0.062270677709034439
172 0.022411128792875181 0.031184617557350174
173 0.022411128792875181 0.031184617557350174
174 0.022411128792875181 0.031184617557350174
175 0.022411128792875181 0.031184617557350174
176 0.04475142834733413 0.062270677709034439
177 0.022411128792875181 0.031184617557350174
178 0.022411128792875181 0.031184617557350174
179 0.022411128792875181 0.031184617557350174
180 0.06702623786376101 0.093265609840855232
181 0.022411128792875181 0.031184617557350174
182 0.022411128792875181 0.031184617557350174
183 0.022411128792875181 0.031184617557350174
184 0.04475142834733413 0.062270677709034439
185 0.022411128792875181 0.031184617557350174
186 0.15557170745185664 0.21647478109949181
187 0.022411128792875181 0.031184617557350174
188 0.022411128792875181 0.031184617557350174
189 0.022411128792875181 0.031184617557350174
190 0.022411128792875181 0.031184617557350174
191 0.022411128792875181 0.031184617557350174
192 0.022411128792875181 0.031184617557350174
193 0.022411128792875181 0.031184617557350174
194 0.022411128792875181 0.031184617557350174
195 0.022411128792875181 0.031184617557350174
196 0.04475142834733413 0.062270677709034439
197 0.022411128792875181 0.031184617557350174
198 0.04475142834733413 0.062270677709034439
199 0.022411128792875181 0.031184617557350174
200 0.022411128792875181 0.031184617557350174
201 0.022411128792875181 0.031184617557350174
202 0.04475142834733413 0.062270677709034439
203 0.022411128792875181 0.031184617557350174
204 0.04475142834733413 0.062270677709034439
205 0.13350876311284993 0.1857746549362877
206 0.022411128792875181 0.031184617557350174
207 0.022411128792875181 0.031184617557350174
208 0.022411128792875181 0.031184617557350174
209 0.022411128792875181 0.031184617557350174
210 0.1113999831775299 0.15501074949830218
211 0.022411128792875181 0.031184617557350174
212 0.04475142834733413 0.062270677709034439
213 0.06702623786376101 0.093265609840855232
214 0.022411128792875181 0.031184617557350174
215 0.022411128792875181 0.031184617557350174
216 0.022411128792875181 0.031184617557350174
217 0.022411128792875181 0.031184617557350174
218 0.04475142834733413 0.062270677709034439
219 0.022411128792875181 0.031184617557350174
220 0.04475142834733413 0.062270677709034439
221 0.17759321793053809 0.24711725291158684
222 0.022411128792875181 0.031184617557350174
223 0.022411128792875181 0.031184617557350174
224 0.022411128792875181 0.031184617557350174
225 0.022411128792875181 0.031184617557350174
226 0.022411128792875181 0.031184617557350174
227 0.022411128792875181 0.031184617557350174
228 0.022411128792875181 0.031184617557350174
229 0.04475142834733413 0.062270677709034439
230 0.022411128792875181 0.031184617557350174
231 0.022411128792875181 0.031184617557350174
232 0.022411128792875181 0.031184617557350174
233 0.022411128792875181 0.031184617557350174
234 0.022411128792875181 0.031184617557350174
235 0.04475142834733413 0.062270677709034439
236 0.022411128792875181 0.031184617557350174
237 0.022411128792875181 0.031184617557350174
238 0.06702623786376101 0.093265609840855232
239 0.022411128792875181 0.031184617557350174
240 0.022411128792875181 0.031184617557350174
241 0.022411128792875181 0.031184617557350174
242 0.022411128792875181 0.031184617557350174
243 0.04475142834733413 0.062270677709034439
244 0.022411128792875181 0.031184617557350174
245 0.022411128792875181 0.031184617557350174
246 0.022411128792875181 0.031184617557350174
247 0.06702623786376101 0.093265609840855232
248 0.022411128792875181 0.031184617557350174
249 0.06702623786376101 0.093265609840855232
250 0.022411128792875181 0.031184617557350174
251 0.022411128792875181 0.031184617557350174
252 0.06702623786376101 0.093265609840855232
253 0.022411128792875181 0.031184617557350174
254 0.04475142834733413 0.062270677709034439
255 0.022411128792875181 0.031184617557350174
256 0.022411128792875181 0.031184617557350174
257 0.022411128792875181 0.031184617557350174
258 0.022411128792875181 0.031184617557350174
259 0.022411128792875181 0.031184617557350174
260 0.06702623786376101 0.093265609840855232
261 0.022411128792875181 0.031184617557350174
262 0.04475142834733413 0.062270677709034439
263 0.022411128792875181 0.031184617557350174
264 0.022411128792875181 0.031184617557350174
265 0.022411128792875181 0.031184617557350174
266 0.022411128792875181 0.031184617557350174
267 0.06702623786376101 0.093265609840855232
268 0.022411128792875181 0.031184617557350174
269 0.022411128792875181 0.031184617557350174
270 0.022411128792875181 0.031184617557350174
271 0.022411128792875181 0.031184617557350174
272 0.022411128792875181 0.031184617557350174
273 0.022411128792875181 0.031184617557350174
274 0.022411128792875181 0.031184617557350174
275 0.022411128792875181 0.031184617557350174
276 0.06702623786376101 0.093265609840855232
277 0.022411128792875181 0.031184617557350174
278 0.022411128792875181 0.031184617557350174
279 0.022411128792875181 0.031184617557350174
280 0.022411128792875181 0.031184617557350174
281 0.0892407498493729 0.12417663921812813
282 0.022411128792875181 0.031184617557350174
283 0.13350876311284993 0.1857746549362877
284 0.022411128792875181 0.031184617557350174
285 0.022411128792875181 0.031184617557350174
286 0.022411128792875181 0.031184617557350174
287 0.04475142834733413 0.062270677709034439
288 0.022411128792875181 0.031184617557350174
289 0.04475142834733413 0.062270677709034439
290 0.022411128792875181 0.031184617557350174
291 0.022411128792875181 0.031184617557350174
292 0.022411128792875181 0.031184617557350174
293 0.04475142834733413 0.062270677709034439
294 0.022411128792875181 0.031184617557350174
295 0.06702623786376101 0.093265609840855232
296 0.022411128792875181 0.031184617557350174
297 0.06702623786376101 0.093265609840855232
298 0.022411128792875181 0.031184617557350174
299 0.06702623786376101 0.093265609840855232
300 0.022411128792875181 0.031184617557350174
301 0.04475142834733413 0.062270677709034439
302 0.022411128792875181 0.031184617557350174
303 0.022411128792875181 0.031184617557350174
304 0.15557170745185664 0.21647478109949181
305 0.022411128792875181 0.031184617557350174
306 0.04475142834733413 0.062270677709034439
307 0.04475142834733413 0.062270677709034439
308 0.022411128792875181 0.031184617557350174
309 0.022411128792875181 0.031184617557350174
310 0.022411128792875181 0.031184617557350174
311 0.022411128792875181 0.031184617557350174
312 0.022411128792875181 0.031184617557350174
313 0.022411128792875181 0.031184617557350174
314 0.022411128792875181 0.031184617557350174
315 0.022411128792875181 0.031184617557350174
316 0.022411128792875181 0.031184617557350174
317 0.022411128792875181 0.031184617557350174
318 0.022411128792875181 0.031184617557350174
319 0.022411128792875181 0.031184617557350174
320 0.26534525919352248 0.36922238523017947
321 0.04475142834733413 0.062270677709034439
322 0.022411128792875181 0.031184617557350174
323 0.022411128792875181 0.031184617557350174
324 0.022411128792875181 0.031184617557350174
325 0.87708172718181765 1.2204409015489401
326 0.13350876311284993 0.1857746549362877
327 0.022411128792875181 0.031184617557350174
328 0.022411128792875181 0.031184617557350174
329 0.022411128792875181 0.031184617557350174
330 0.022411128792875181 0.031184617557350174
331 0.06702623786376101 0.093265609840855232
332 0.022411128792875181 0.031184617557350174
333 0.022411128792875181 0.031184617557350174
334 0.022411128792875181 0.031184617557350174
335 0.022411128792875181 0.031184617557350174
336 0.022411128792875181 0.031184617557350174
337 0.022411128792875181 0.031184617557350174
338 0.1113999831775299 0.15501074949830218
339 0.022411128792875181 0.031184617557350174
340 0.022411128792875181 0.031184617557350174
341 0.022411128792875181 0.031184617557350174
342 0.022411128792875181 0.031184617557350174
343 0.022411128792875181 0.031184617557350174
344 0.022411128792875181 0.031184617557350174
345 0.022411128792875181 0.031184617557350174
346 0.022411128792875181 0.031184617557350174
347 0.15557170745185664 0.21647478109949181
348 0.022411128792875181 0.031184617557350174
349 0.022411128792875181 0.031184617557350174
350 0.022411128792875181 0.031184617557350174
351 0.04475142834733413 0.062270677709034439
352 0.022411128792875181 0.031184617557350174
353 0.022411128792875181 0.031184617557350174
354 0.022411128792875181 0.031184617557350174
355 0.04475142834733413 0.062270677709034439
356 0.022411128792875181 0.031184617557350174
357 0.022411128792875181 0.031184617557350174
358 0.022411128792875181 0.031184617557350174
359 0.0892407498493729 0.12417663921812813
360 0.0892407498493729 0.12417663921812813
361 0.022411128792875181 0.031184617557350174
362 0.04475142834733413 0.062270677709034439
363 0.04475142834733413 0.062270677709034439
364 0.022411128792875181 0.031184617557350174
365 0.022411128792875181 0.031184617557350174
366 0.022411128792875181 0.031184617557350174
367 0.022411128792875181 0.031184617557350174
368 0.022411128792875181 0.031184617557350174
369 0.022411128792875181 0.031184617557350174
370 0.13350876311284993 0.1857746549362877
371 0.022411128792875181 0.031184617557350174
372 0.022411128792875181 0.031184617557350174
373 0.022411128792875181 0.031184617557350174
374 0.022411128792875181 0.031184617557350174
375 0.04475142834733413 0.062270677709034439
376 0.17759321793053809 0.24711725291158684
377 0.13350876311284993 0.1857746549362877
378 0.0892407498493729 0.12417663921812813
379 0.022411128792875181 0.031184617557350174
380 0.022411128792875181 0.031184617557350174
381 0.1113999831775299 0.15501074949830218
382 0.022411128792875181 0.031184617557350174
383 0.022411128792875181 0.031184617557350174
384 0.04475142834733413 0.062270677709034439
385 0.022411128792875181 0.031184617557350174
386 0.022411128792875181 0.031184617557350174
387 0.022411128792875181 0.031184617557350174
388 0.022411128792875181 0.031184617557350174
389 0.04475142834733413 0.062270677709034439
390 0.06702623786376101 0.093265609840855232
391 0.022411128792875181 0.031184617557350174
392 0.022411128792875181 0.031184617557350174
393 0.022411128792875181 0.031184617557350174
394 0.022411128792875181 0.031184617557350174
395 0.06702623786376101 0.093265609840855232
396 0.022411128792875181 0.031184617557350174
397 0.022411128792875181 0.031184617557350174
398 0.022411128792875181 0.031184617557350174
399 0.022411128792875181 0.031184617557350174
400 0.022411128792875181 0.031184617557350174
401 0.022411128792875181 0.031184617557350174
402 0.022411128792875181 0.031184617557350174
403 0.022411128792875181 0.031184617557350174
404 0.022411128792875181 0.031184617557350174
405 0.022411128792875181 0.031184617557350174
406 0.022411128792875181 0.031184617557350174
407 0.022411128792875181 0.031184617557350174
408 0.04475142834733413 0.062270677709034439
409 0.022411128792875181 0.031184617557350174
410 0.06702623786376101 0.093265609840855232
411 0.022411128792875181 0.031184617557350174
412 0.022411128792875181 0.031184617557350174
413 0.15557170745185664 0.21647478109949181
414 0.022411128792875181 0.031184617557350174
415 0.78926006031352991 1.098238886654997
416 0.022411128792875181 0.031184617557350174
417 0.022411128792875181 0.031184617557350174
418 0.06702623786376101 0.093265609840855232
419 0.022411128792875181 0.031184617557350174
420 0.022411128792875181 0.031184617557350174
421 0.022411128792875181 0.031184617557350174
422 0.022411128792875181 0.031184617557350174
423 0.022411128792875181 0.031184617557350174
424 0.022411128792875181 0.031184617557350174
425 0.19957747608006668 0.27770788888584796
426 0.022411128792875181 0.031184617557350174
427 0.022411128792875181 0.031184617557350174
428 0.15557170745185664 0.21647478109949181
429 0.1113999831775299 0.15501074949830218
430 0.022411128792875181 0.031184617557350174
431 0.04475142834733413 0.062270677709034439
432 0.022411128792875181 0.031184617557350174
433 0.022411128792875181 0.031184617557350174
434 0.04475142834733413 0.062270677709034439
435 0.022411128792875181 0.031184617557350174
436 0.022411128792875181 0.031184617557350174
437 0.022411128792875181 0.031184617557350174
438 0.04475142834733413 0.062270677709034439
439 0.022411128792875181 0.031184617557350174
440 0.04475142834733413 0.062270677709034439
441 0.022411128792875181 0.031184617557350174
442 0.022411128792875181 0.031184617557350174
443 0.022411128792875181 0.031184617557350174
444 0.06702623786376101 0.093265609840855232
445 0.04475142834733413 0.062270677709034439
446 0.022411128792875181 0.031184617557350174
447 0.15557170745185664 0.21647478109949181
448 0.022411128792875181 0.031184617557350174
449 0.04475142834733413 0.062270677709034439
450 0.022411128792875181 0.031184617557350174
451 0.022411128792875181 0.031184617557350174
452 0.022411128792875181 0.031184617557350174
453 0.022411128792875181 0.031184617557350174
454 0.04475142834733413 0.062270677709034439
455 0.04475142834733413 0.062270677709034439
456 0.022411128792875181 0.031184617557350174
457 0.022411128792875181 0.031184617557350174
458 0.06702623786376101 0.093265609840855232
459 0.022411128792875181 0.031184617557350174
460 0.022411128792875181 0.031184617557350174
461 0.022411128792875181 0.031184617557350174
462 0.022411128792875181 0.031184617557350174
463 0.022411128792875181 0.031184617557350174
464 0.022411128792875181 0.031184617557350174
465 0.022411128792875181 0.031184617557350174
466 0.022411128792875181 0.031184617557350174
467 0.022411128792875181 0.031184617557350174
468 0.022411128792875181 0.031184617557350174
469 0.0892407498493729 0.12417663921812813
470 0.022411128792875181 0.031184617557350174
471 0.022411128792875181 0.031184617557350174
472 0.022411128792875181 0.031184617557350174
473 0.022411128792875181 0.031184617557350174
474 0.022411128792875181 0.031184617557350174
475 0.022411128792875181 0.031184617557350174
476 0.04475142834733413 0.062270677709034439
477 0.022411128792875181 0.031184617557350174
478 0.04475142834733413 0.062270677709034439
479 0.022411128792875181 0.031184617557350174
480 0.04475142834733413 0.062270677709034439
481 0.04475142834733413 0.062270677709034439
482 0.022411128792875181 0.031184617557350174
483 0.022411128792875181 0.031184617557350174
484 0.022411128792875181 0.031184617557350174
485 0.022411128792875181 0.031184617557350174
486 0.022411128792875181 0.031184617557350174
487 0.022411128792875181 0.031184617557350174
488 0.022411128792875181 0.031184617557350174
489 0.04475142834733413 0.062270677709034439
490 0.022411128792875181 0.031184617557350174
491 0.022411128792875181 0.031184617557350174
492 0.022411128792875181 0.031184617557350174
493 0.022411128792875181 0.031184617557350174
494 0.04475142834733413 0.062270677709034439
495 0.022411128792875181 0.031184617557350174
496 0.022411128792875181 0.031184617557350174
497 0.06702623786376101 0.093265609840855232
498 0.022411128792875181 0.031184617557350174
499 0.04475142834733413 0.062270677709034439
500 0.022411128792875181 0.031184617557350174
501 0.022411128792875181 0.031184617557350174
502 0.04475142834733413 0.062270677709034439
503 0.022411128792875181 0.031184617557350174
504 0.04475142834733413 0.062270677709034439
505 0.022411128792875181 0.031184617557350174
506 0.022411128792875181 0.031184617557350174
507 0.022411128792875181 0.031184617557350174
508 0.06702623786376101 0.093265609840855232
509 0.022411128792875181 0.031184617557350174
510 0.022411128792875181 0.031184617557350174
511 0.022411128792875181 0.031184617557350174
512 0.022411128792875181 0.031184617557350174
513 0.06702623786376101 0.093265609840855232
514 0.022411128792875181 0.031184617557350174
515 0.022411128792875181 0.031184617557350174
516 0.33090757974631085 0.46045098471335638
517 0.04475142834733413 0.062270677709034439
518 0.19957747608006668 0.27770788888584796
519 0.04475142834733413 0.062270677709034439
520 0.022411128792875181 0.031184617557350174
521 0.022411128792875181 0.031184617557350174
522 0.022411128792875181 0.031184617557350174
523 0.022411128792875181 0.031184617557350174
524 0.022411128792875181 0.031184617557350174
525 0.022411128792875181 0.031184617557350174
526 0.022411128792875181 0.031184617557350174
527 0.022411128792875181 0.031184617557350174
528 0.022411128792875181 0.031184617557350174
529 0.022411128792875181 0.031184617557350174
530 0.022411128792875181 0.031184617557350174
531 0.022411128792875181 0.031184617557350174
532 0.022411128792875181 0.031184617557350174
533 0.022411128792875181 0.031184617557350174
534 0.022411128792875181 0.031184617557350174
535 0.022411128792875181 0.031184617557350174
536 0.022411128792875181 0.031184617557350174
537 0.022411128792875181 0.031184617557350174
538 0.04475142834733413 0.062270677709034439
539 0.06702623786376101 0.093265609840855232
540 0.022411128792875181 0.031184617557350174
541 0.022411128792875181 0.031184617557350174
542 0.022411128792875181 0.031184617557350174
543 0.022411128792875181 0.031184617557350174
544 0.022411128792875181 0.031184617557350174
545 0.06702623786376101 0.093265609840855232
546 0.022411128792875181 0.031184617557350174
547 0.022411128792875181 0.031184617557350174
548 0.06702623786376101 0.093265609840855232
549 0.022411128792875181 0.031184617557350174
550 0.022411128792875181 0.031184617557350174
551 0.022411128792875181 0.031184617557350174
552 0.022411128792875181 0.031184617557350174
553 0.17759321793053809 0.24711725291158684
554 0.022411128792875181 0.031184617557350174
555 0.022411128792875181 0.031184617557350174
556 0.022411128792875181 0.031184617557350174
557 0.1113999831775299 0.15501074949830218
558 0.022411128792875181 0.031184617557350174
559 0.022411128792875181 0.031184617557350174
560 0.04475142834733413 0.062270677709034439
561 0.13350876311284993 0.1857746549362877
562 0.022411128792875181 0.031184617557350174
563 0.022411128792875181 0.031184617557350174
564 0.022411128792875181 0.031184617557350174
565 0.022411128792875181 0.031184617557350174
566 0.04475142834733413 0.062270677709034439
567 0.04475142834733413 0.062270677709034439
568 0.022411128792875181 0.031184617557350174
569 0.022411128792875181 0.031184617557350174
570 0.022411128792875181 0.031184617557350174
571 0.022411128792875181 0.031184617557350174
572 0.022411128792875181 0.031184617557350174
573 0.022411128792875181 0.031184617557350174
574 0.04475142834733413 0.062270677709034439
575 0.022411128792875181 0.031184617557350174
576 0.022411128792875181 0.031184617557350174
577 0.04475142834733413 0.062270677709034439
578 0.04475142834733413 0.062270677709034439
579 0.022411128792875181 0.031184617557350174
580 0.022411128792875181 0.031184617557350174
581 0.04475142834733413 0.062270677709034439
582 0.06702623786376101 0.093265609840855232
583 0.022411128792875181 0.031184617557350174
584 0.022411128792875181 0.031184617557350174
585 0.0892407498493729 0.12417663921812813
586 0.022411128792875181 0.031184617557350174
587 0.022411128792875181 0.031184617557350174
588 0.022411128792875181 0.031184617557350174
589 0.022411128792875181 0.031184617557350174
590 0.022411128792875181 0.031184617557350174
591 0.04475142834733413 0.062270677709034439
592 0.022411128792875181 0.031184617557350174
593 0.022411128792875181 0.031184617557350174
594 0.022411128792875181 0.031184617557350174
595 0.022411128792875181 0.031184617557350174
596 0.022411128792875181 0.031184617557350174
597 0.022411128792875181 0.031184617557350174
598 0.022411128792875181 0.031184617557350174
599 0.022411128792875181 0.031184617557350174
600 0.022411128792875181 0.031184617557350174
601 0.06702623786376101 0.093265609840855232
602 0.022411128792875181 0.031184617557350174
603 0.13350876311284993 0.1857746549362877
604 0.022411128792875181 0.031184617557350174
605 0.022411128792875181 0.031184617557350174
606 0.022411128792875181 0.031184617557350174
607 0.022411128792875181 0.031184617557350174
608 0.022411128792875181 0.031184617557350174
609 0.022411128792875181 0.031184617557350174
610 0.04475142834733413 0.062270677709034439
611 0.022411128792875181 0.031184617557350174
612 0.04475142834733413 0.062270677709034439
613 0.022411128792875181 0.031184617557350174
614 0.06702623786376101 0.093265609840855232
615 0.04475142834733413 0.062270677709034439
616 0.022411128792875181 0.031184617557350174
617 0.04475142834733413 0.062270677709034439
618 0.022411128792875181 0.031184617557350174
619 0.04475142834733413 0.062270677709034439
620 0.022411128792875181 0.031184617557350174
621 0.022411128792875181 0.031184617557350174
622 0.022411128792875181 0.031184617557350174
623 0.022411128792875181 0.031184617557350174
624 0.17759321793053809 0.24711725291158684
625 0.022411128792875181 0.031184617557350174
626 0.022411128792875181 0.031184617557350174
627 0.022411128792875181 0.031184617557350174
628 0.04475142834733413 0.062270677709034439
629 0.022411128792875181 0.031184617557350174
630 0.04475142834733413 0.062270677709034439
631 0.022411128792875181 0.031184617557350174
632 0.022411128792875181 0.031184617557350174
633 0.022411128792875181 0.031184617557350174
634 0.022411128792875181 0.031184617557350174
635 0.022411128792875181 0.031184617557350174
636 0.022411128792875181 0.031184617557350174
637 0.022411128792875181 0.031184617557350174
638 0.022411128792875181 0.031184617557350174
639 0.022411128792875181 0.031184617557350174
640 0.022411128792875181 0.031184617557350174
641 0.022411128792875181 0.031184617557350174
642 0.022411128792875181 0.031184617557350174
643 0.022411128792875181 0.031184617557350174
644 0.022411128792875181 0.031184617557350174
645 0.022411128792875181 0.031184617557350174
646 0.04475142834733413 0.062270677709034439
647 0.022411128792875181 0.031184617557350174
648 0.022411128792875181 0.031184617557350174
649 0.04475142834733413 0.062270677709034439
650 0.022411128792875181 0.031184617557350174
651 0.04475142834733413 0.062270677709034439
652 0.022411128792875181 0.031184617557350174
653 0.022411128792875181 0.031184617557350174
654 0.022411128792875181 0.031184617557350174
655 0.022411128792875181 0.031184617557350174
656 0.04475142834733413 0.062270677709034439
657 0.022411128792875181 0.031184617557350174
658 0.022411128792875181 0.031184617557350174
659 0.022411128792875181 0.031184617557350174
660 0.04475142834733413 0.062270677709034439
661 0.022411128792875181 0.031184617557350174
662 0.04475142834733413 0.062270677709034439
663 0.24344986067352761 0.33875539557418149
664 0.022411128792875181 0.031184617557350174
665 0.022411128792875181 0.031184617557350174
666 0.19957747608006668 0.27770788888584796
667 0.022411128792875181 0.031184617557350174
668 0.04475142834733413 0.062270677709034439
669 0.022411128792875181 0.031184617557350174
670 0.06702623786376101 0.093265609840855232
671 0.06702623786376101 0.093265609840855232
672 0.04475142834733413 0.062270677709034439
673 0.022411128792875181 0.031184617557350174
674 0.022411128792875181 0.031184617557350174
675 0.022411128792875181 0.031184617557350174
676 0.022411128792875181 0.031184617557350174
677 0.022411128792875181 0.031184617557350174
678 0.04475142834733413 0.062270677709034439
679 0.022411128792875181 0.031184617557350174
680 0.022411128792875181 0.031184617557350174
681 0.022411128792875181 0.031184617557350174
682 0.022411128792875181 0.031184617557350174
683 0.022411128792875181 0.031184617557350174
684 0.06702623786376101 0.093265609840855232
685 0.04475142834733413 0.062270677709034439
686 0.04475142834733413 0.062270677709034439
687 0.17759321793053809 0.24711725291158684
688 0.022411128792875181 0.031184617557350174
689 0.04475142834733413 0.062270677709034439
690 0.022411128792875181 0.031184617557350174
691 0.022411128792875181 0.031184617557350174
692 0.022411128792875181 0.031184617557350174
693 0.022411128792875181 0.031184617557350174
694 0.022411128792875181 0.031184617557350174
695 0.022411128792875181 0.031184617557350174
696 0.022411128792875181 0.031184617557350174
697 0.022411128792875181 0.031184617557350174
698 0.022411128792875181 0.031184617557350174
699 0.022411128792875181 0.031184617557350174
700 0.022411128792875181 0.031184617557350174
701 0.022411128792875181 0.031184617557350174
702 0.06702623786376101 0.093265609840855232
703 0.022411128792875181 0.031184617557350174
704 0.04475142834733413 0.062270677709034439
705 0.022411128792875181 0.031184617557350174
706 0.022411128792875181 0.031184617557350174
707 0.04475142834733413 0.062270677709034439
708 0.022411128792875181 0.031184617557350174
709 0.022411128792875181 0.031184617557350174
710 0.022411128792875181 0.031184617557350174
711 0.022411128792875181 0.031184617557350174
712 0.1113999831775299 0.15501074949830218
713 0.022411128792875181 0.031184617557350174
714 0.022411128792875181 0.031184617557350174
715 0.04475142834733413 0.062270677709034439
716 0.022411128792875181 0.031184617557350174
717 0.022411128792875181 0.031184617557350174
718 0.04475142834733413 0.062270677709034439
719 0.0892407498493729 0.12417663921812813
720 0.022411128792875181 0.031184617557350174
721 0.022411128792875181 0.031184617557350174
722 0.022411128792875181 0.031184617557350174
723 0.022411128792875181 0.031184617557350174
724 0.04475142834733413 0.062270677709034439
725 0.04475142834733413 0.062270677709034439
726 0.022411128792875181 0.031184617557350174
727 0.022411128792875181 0.031184617557350174
728 0.04475142834733413 0.062270677709034439
729 0.022411128792875181 0.031184617557350174
730 0.022411128792875181 0.031184617557350174
731 0.022411128792875181 0.031184617557350174
732 0.022411128792875181 0.031184617557350174
733 0.022411128792875181 0.031184617557350174
734 0.1113999831775299 0.15501074949830218
735 0.04475142834733413 0.062270677709034439
736 0.022411128792875181 0.031184617557350174
737 0.022411128792875181 0.031184617557350174
738 0.022411128792875181 0.031184617557350174
739 0.06702623786376101 0.093265609840855232
740 0.022411128792875181 0.031184617557350174
741 0.022411128792875181 0.031184617557350174
742 0.022411128792875181 0.031184617557350174
743 0.022411128792875181 0.031184617557350174
744 0.022411128792875181 0.031184617557350174
745 0.04475142834733413 0.062270677709034439
746 0.022411128792875181 0.031184617557350174
747 0.04475142834733413 0.062270677709034439
748 0.022411128792875181 0.031184617557350174
749 0.022411128792875181 0.031184617557350174
750 0.022411128792875181 0.031184617557350174
751 0.28721796099103208 0.39965779287096614
752 0.022411128792875181 0.031184617557350174
753 0.022411128792875181 0.031184617557350174
754 0.06702623786376101 0.093265609840855232
755 0.022411128792875181 0.031184617557350174
756 0.022411128792875181 0.031184617557350174
757 0.022411128792875181 0.031184617557350174
758 0.04475142834733413 0.062270677709034439
759 0.022411128792875181 0.031184617557350174
760 0.022411128792875181 0.031184617557350174
761 0.022411128792875181 0.031184617557350174
762 0.022411128792875181 0.031184617557350174
763 0.022411128792875181 0.031184617557350174
764 0.022411128792875181 0.031184617557350174
765 0.022411128792875181 0.031184617557350174
766 0.04475142834733413 0.062270677709034439
767 0.022411128792875181 0.031184617557350174
768 0.022411128792875181 0.031184617557350174
769 0.17759321793053809 0.24711725291158684
770 0.022411128792875181 0.031184617557350174
771 0.022411128792875181 0.031184617557350174
772 0.022411128792875181 0.031184617557350174
773 0.022411128792875181 0.031184617557350174
774 0.022411128792875181 0.031184617557350174
775 0.1113999831775299 0.15501074949830218
776 0.022411128792875181 0.031184617557350174
777 0.022411128792875181 0.031184617557350174
778 0.022411128792875181 0.031184617557350174
779 0.022411128792875181 0.031184617557350174
780 0.04475142834733413 0.062270677709034439
781 0.022411128792875181 0.031184617557350174
782 0.04475142834733413 0.062270677709034439
783 0.15557170745185664 0.21647478109949181
784 0.022411128792875181 0.031184617557350174
785 0.022411128792875181 0.031184617557350174
786 0.022411128792875181 0.031184617557350174
787 0.022411128792875181 0.031184617557350174
788 0.04475142834733413 0.062270677709034439
789 0.022411128792875181 0.031184617557350174
790 0.022411128792875181 0.031184617557350174
791 0.022411128792875181 0.031184617557350174
792 0.13350876311284993 0.1857746549362877
793 0.022411128792875181 0.031184617557350174
794 0.04475142834733413 0.062270677709034439
795 0.022411128792875181 0.031184617557350174
796 0.022411128792875181 0.031184617557350174
797 0.13350876311284993 0.1857746549362877
798 0.022411128792875181 0.031184617557350174
799 0.0892407498493729 0.12417663921812813
800 0.04475142834733413 0.062270677709034439
801 0.022411128792875181 0.031184617557350174
802 0.022411128792875181 0.031184617557350174
803 0.022411128792875181 0.031184617557350174
804 0.022411128792875181 0.031184617557350174
805 0.022411128792875181 0.031184617557350174
806 0.022411128792875181 0.031184617557350174
807 0.022411128792875181 0.031184617557350174
808 0.022411128792875181 0.031184617557350174
809 0.022411128792875181 0.031184617557350174
810 0.022411128792875181 0.031184617557350174
811 0.04475142834733413 0.062270677709034439
812 0.04475142834733413 0.062270677709034439
813 0.022411128792875181 0.031184617557350174
814 0.022411128792875181 0.031184617557350174
815 0.04475142834733413 0.062270677709034439
816 0.06702623786376101 0.093265609840855232
817 0.022411128792875181 0.031184617557350174
818 0.022411128792875181 0.031184617557350174
819 0.022411128792875181 0.031184617557350174
820 0.022411128792875181 0.031184617557350174
821 0.26534525919352248 0.36922238523017947
822 0.022411128792875181 0.031184617557350174
823 0.1113999831775299 0.15501074949830218
824 0.06702623786376101 0.093265609840855232
825 0.022411128792875181 0.031184617557350174
826 0.022411128792875181 0.031184617557350174
827 0.1113999831775299 0.15501074949830218
828 0.0892407498493729 0.12417663921812813
829 0.022411128792875181 0.031184617557350174
830 0.022411128792875181 0.031184617557350174
831 0.022411128792875181 0.031184617557350174
832 0.022411128792875181 0.031184617557350174
833 0.022411128792875181 0.031184617557350174
834 0.022411128792875181 0.031184617557350174
835 0.022411128792875181 0.031184617557350174
836 0.04475142834733413 0.062270677709034439
837 0.022411128792875181 0.031184617557350174
838 0.022411128792875181 0.031184617557350174
839 0.04475142834733413 0.062270677709034439
840 0.022411128792875181 0.031184617557350174
841 0.0892407498493729 0.12417663921812813
842 0.022411128792875181 0.031184617557350174
843 0.022411128792875181 0.031184617557350174
844 0.04475142834733413 0.062270677709034439
845 0.022411128792875181 0.031184617557350174
846 0.022411128792875181 0.031184617557350174
847 0.022411128792875181 0.031184617557350174
848 0.022411128792875181 0.031184617557350174
849 0.0892407498493729 0.12417663921812813
850 0.022411128792875181 0.031184617557350174
851 0.022411128792875181 0.031184617557350174
852 0.17759321793053809 0.24711725291158684
853 0.04475142834733413 0.062270677709034439
854 0.022411128792875181 0.031184617557350174
855 0.022411128792875181 0.031184617557350174
856 0.022411128792875181 0.031184617557350174
857 0.022411128792875181 0.031184617557350174
858 0.022411128792875181 0.031184617557350174
859 0.022411128792875181 0.031184617557350174
860 0.022411128792875181 0.031184617557350174
861 0.022411128792875181 0.031184617557350174
862 0.022411128792875181 0.031184617557350174
863 1.1199846230504014 1.5584352070228547
864 0.022411128792875181 0.031184617557350174
865 0.022411128792875181 0.031184617557350174
866 0.022411128792875181 0.031184617557350174
867 2.7593107514200397 3.8395232698978798
868 0.022411128792875181 0.031184617557350174
869 0.022411128792875181 0.031184617557350174
870 0.022411128792875181 0.031184617557350174
871 0.022411128792875181 0.031184617557350174
872 0.022411128792875181 0.031184617557350174
873 0.022411128792875181 0.031184617557350174
874 0.06702623786376101 0.093265609840855232
875 0.022411128792875181 0.031184617557350174
876 0.022411128792875181 0.031184617557350174
877 0.022411128792875181 0.031184617557350174
878 0.022411128792875181 0.031184617557350174
879 0.022411128792875181 0.031184617557350174
880 0.04475142834733413 0.062270677709034439
881 0.022411128792875181 0.031184617557350174
882 0.022411128792875181 0.031184617557350174
883 0.022411128792875181 0.031184617557350174
884 0.022411128792875181 0.031184617557350174
885 0.04475142834733413 0.062270677709034439
886 0.04475142834733413 0.062270677709034439
887 0.022411128792875181 0.031184617557350174
888 0.022411128792875181 0.031184617557350174
889 0.022411128792875181 0.031184617557350174
890 0.022411128792875181 0.031184617557350174
891 0.022411128792875181 0.031184617557350174
892 0.022411128792875181 0.031184617557350174
893 0.022411128792875181 0.031184617557350174
894 0.022411128792875181 0.031184617557350174
895 0.35273018342023899 0.49081668186170069
896 0.04475142834733413 0.062270677709034439
897 0.022411128792875181 0.031184617557350174
898 0.022411128792875181 0.031184617557350174
899 0.022411128792875181 0.031184617557350174
900 0.022411128792875181 0.031184617557350174
901 0.022411128792875181 0.031184617557350174
902 0.022411128792875181 0.031184617557350174
903 0.022411128792875181 0.031184617557350174
904 0.022411128792875181 0.031184617557350174
905 0.022411128792875181 0.031184617557350174
906 0.022411128792875181 0.031184617557350174
907 0.022411128792875181 0.031184617557350174
908 0.022411128792875181 0.031184617557350174
909 0.022411128792875181 0.031184617557350174
910 0.022411128792875181 0.031184617557350174
911 0.022411128792875181 0.031184617557350174
912 0.022411128792875181 0.031184617557350174
913 0.022411128792875181 0.031184617557350174
914 0.022411128792875181 0.031184617557350174
915 0.04475142834733413 0.062270677709034439
916 0.022411128792875181 0.031184617557350174
917 0.022411128792875181 0.031184617557350174
918 0.022411128792875181 0.031184617557350174
919 0.022411128792875181 0.031184617557350174
920 0.022411128792875181 0.031184617557350174
921 0.04475142834733413 0.062270677709034439
922 0.022411128792875181 0.031184617557350174
923 0.022411128792875181 0.031184617557350174
924 0.022411128792875181 0.031184617557350174
925 0.022411128792875181 0.031184617557350174
926 0.022411128792875181 0.031184617557350174
927 0.022411128792875181 0.031184617557350174
928 0.022411128792875181 0.031184617557350174
929 0.022411128792875181 0.031184617557350174
930 0.022411128792875181 0.031184617557350174
931 0.022411128792875181 0.031184617557350174
932 0.022411128792875181 0.031184617557350174
933 0.022411128792875181 0.031184617557350174
934 0.04475142834733413 0.062270677709034439
935 0.022411128792875181 0.031184617557350174
936 0.022411128792875181 0.031184617557350174
937 0.022411128792875181 0.031184617557350174
938 0.022411128792875181 0.031184617557350174
939 0.022411128792875181 0.031184617557350174
940 0.04475142834733413 0.062270677709034439
941 0.022411128792875181 0.031184617557350174
942 0.022411128792875181 0.031184617557350174
943 0.022411128792875181 0.031184617557350174
944 0.022411128792875181 0.031184617557350174
945 0.022411128792875181 0.031184617557350174
946 0.04475142834733413 0.062270677709034439
947 0.022411128792875181 0.031184617557350174
948 0.022411128792875181 0.031184617557350174
949 0.022411128792875181 0.031184617557350174
950 0.022411128792875181 0.031184617557350174
951 0.0892407498493729 0.12417663921812813
952 0.022411128792875181 0.031184617557350174
953 0.04475142834733413 0.062270677709034439
954 0.022411128792875181 0.031184617557350174
955 0.022411128792875181 0.031184617557350174
956 0.022411128792875181 0.031184617557350174
957 0.022411128792875181 0.031184617557350174
958 0.022411128792875181 0.031184617557350174
959 0.0892407498493729 0.12417663921812813
960 0.022411128792875181 0.031184617557350174
961 0.022411128792875181 0.031184617557350174
962 0.022411128792875181 0.031184617557350174
963 0.022411128792875181 0.031184617557350174
964 0.022411128792875181 0.031184617557350174
965 0.022411128792875181 0.031184617557350174
966 0.022411128792875181 0.031184617557350174
967 0.022411128792875181 0.031184617557350174
968 0.022411128792875181 0.031184617557350174
969 0.022411128792875181 0.031184617557350174
970 0.04475142834733413 0.062270677709034439
971 0.022411128792875181 0.031184617557350174
972 0.022411128792875181 0.031184617557350174
973 0.022411128792875181 0.031184617557350174
974 0.022411128792875181 0.031184617557350174
975 0.022411128792875181 0.031184617557350174
976 0.04475142834733413 0.062270677709034439
977 0.022411128792875181 0.031184617557350174
978 0.022411128792875181 0.031184617557350174
979 0.04475142834733413 0.062270677709034439
980 0.022411128792875181 0.031184617557350174
981 0.04475142834733413 0.062270677709034439
982 0.022411128792875181 0.031184617557350174
983 0.022411128792875181 0.031184617557350174
984 0.04475142834733413 0.062270677709034439
985 0.022411128792875181 0.031184617557350174
986 0.022411128792875181 0.031184617557350174
987 0.04475142834733413 0.062270677709034439
988 0.022411128792875181 0.031184617557350174
989 0.022411128792875181 0.031184617557350174
990 0.022411128792875181 0.031184617557350174
991 0.022411128792875181 0.031184617557350174
992 0.0892407498493729 0.12417663921812813
993 0.06702623786376101 0.093265609840855232
994 0.022411128792875181 0.031184617557350174
995 0.022411128792875181 0.031184617557350174
996 0.022411128792875181 0.031184617557350174
997 0.04475142834733413 0.062270677709034439
998 0.022411128792875181 0.031184617557350174
999 0.04475142834733413 0.062270677709034439
