# #Node_id x y
0 0.030052700555338152 0.032304034023673323
1 0.23252015148443761 0.24993876926066649
2 0.12985535317176305 0.13958320986875583
3 0.059884359105805696 0.064370474001080202
4 0.020685037171783716 0.022234605328460111
5 0.069161607943977466 0.074342705099786965
6 0.21649099875456917 0.23270891230294072
7 0.050585643271548797 0.054375160598862271
8 0.033793716695717235 0.036325305744491443
9 0.080265979688335209 0.086279000205635725
10 0.11705850279119162 0.12582762557981764
11 0.21649099875456917 0.23270891230294072
12 0.0094152805291729535 0.010120615970911018
13 0.18962546827334059 0.20383081721914742
14 0.28371197642468593 0.30496392507830195
15 0.089496131689689062 0.096200313923450298
16 0.072866468518574867 0.078325131313519702
17 0.091339605673354474 0.098182088995526107
18 0.065453280022707894 0.070356575888166517
19 0.085806645502291334 0.09223478932967405
20 0.041265410957331605 0.044356728808729429
21 0.19142235605172142 0.20576232550212159
22 0.018808929661635387 0.02021792888685936
23 0.17882640252393123 0.19222280777565004
24 0.011295743291981297 0.012141924053522324
25 0.14988087893499108 0.16110888478647573
26 0.16438063471059655 0.17669482942580317
27 0.12802981294032356 0.13762088159759522
28 0.056167452580813071 0.060375115632551213
29 0.052447102957942415 0.056376065540140186
30 0.16799709827639286 0.18058225071960116
31 0.028180888685300942 0.030292008763568801
32 0.083960587703549139 0.090250584996449779
33 0.1571374794075443 0.16890910981406237
34 0.043131181162716414 0.046362258579923155
35 0.12985535317176305 0.13958320986875583
36 0.065453280022707894 0.070356575888166517
37 0.25378736156081994 0.27279922908477605
38 0.018808929661635387 0.02021792888685936
39 0.2502511367519612 0.26899807144350452
40 0.041265410957331605 0.044356728808729429
41 0.13897051857180126 0.14938125293409965
42 0.024434693297673726 0.026265162559605426
43 0.013175333077196094 0.014162334723928305
44 0.050585643271548797 0.054375160598862271
45 0.02256030383362323 0.024250354743841573
46 0.0094152805291729535 0.010120615970911018
47 0.046860132617913275 0.050370562035114974
48 0.016931913205957883 0.018200351965311112
49 0.27669192711136137 0.29742121026030721
50 0.031923642474161185 0.034315136497537979
51 0.03753128179416948 0.04034286856837338
52 0.12802981294032356 0.13762088159759522
53 0.065453280022707894 0.070356575888166517
54 0.14079109927906674 0.15133817984099096
55 0.020685037171783716 0.022234605328460111
56 0.19501413806865237 0.2096226361435814
57 0.063597821997331327 0.068362130137937072
58 0.059884359105805696 0.064370474001080202
59 0.020685037171783716 0.022234605328460111
60 0.098705031528388776 0.10609916262024488
61 0.13168012924777533 0.14154470439692918
62 0.018808929661635387 0.02021792888685936
63 0.22362341273006692 0.24037559294148836
64 0.061741506064522611 0.066366748426554878
65 0.1716102384539176 0.18446605397219196
66 0.1207190365917245 0.12976239883834484
67 0.050585643271548797 0.054375160598862271
68 0.011295743291981297 0.012141924053522324
69 0.011295743291981297 0.012141924053522324
70 0.15169629970051951 0.16306030209066935
71 0.046860132617913275 0.050370562035114974
72 0.013175333077196094 0.014162334723928305
73 0.0075339619783824086 0.0080983536985028692
74 0.035662937684900031 0.038334557019430893
75 0.080265979688335209 0.086279000205635725
76 0.12802981294032356 0.13762088159759522
77 0.10421991922567325 0.11202732365096729
78 0.028180888685300942 0.030292008763568801
79 0.085806645502291334 0.09223478932967405
80 0.0037687159547887816 0.0040510368738669311
81 0.02256030383362323 0.024250354743841573
82 0.2182754001041316 0.23462692903890631
83 0.02256030383362323 0.024250354743841573
84 0.035662937684900031 0.038334557019430893
85 0.0037687159547887816 0.0040510368738669311
86 0.011295743291981297 0.012141924053522324
87 0.016931913205957883 0.018200351965311112
88 0.013175333077196094 0.014162334723928305
89 0.0018847965623183804 0.0020259845543351696
90 0.0075339619783824086 0.0080983536985028692
91 0.0075339619783824086 0.0080983536985028692
92 0.011295743291981297 0.012141924053522324
93 0.015054044535755096 0.016181786977069512
94 0.043131181162716414 0.046362258579923155
95 0.12802981294032356 0.13762088159759522
96 0.033793716695717235 0.036325305744491443
97 0.03753128179416948 0.04034286856837338
98 0.018808929661635387 0.02021792888685936
99 0.0094152805291729535 0.010120615970911018
100 0.1133946096698587 0.12188928409147864
101 0.0018847965623183804 0.0020259845543351696
102 0.0037687159547887816 0.0040510368738669311
103 0.0018847965623183804 0.0020259845543351696
104 0.015054044535755096 0.016181786977069512
105 0.035662937684900031 0.038334557019430893
106 0.20218660751332912 0.21733244914055677
107 0.011295743291981297 0.012141924053522324
108 0.0037687159547887816 0.0040510368738669311
109 0.0056517720792853554 0.0060751582634833712
110 0.046860132617913275 0.050370562035114974
111 0.0018847965623183804 0.0020259845543351696
112 0.0018847965623183804 0.0020259845543351696
113 0.0094152805291729535 0.010120615970911018
114 0.0075339619783824086 0.0080983536985028692
115 0.056167452580813071 0.060375115632551213
116 0.013175333077196094 0.014162334723928305
117 0.0037687159547887816 0.0040510368738669311
118 0.0018847965623183804 0.0020259845543351696
119 0.1225480238500441 0.13172841121982137
120 0.0037687159547887816 0.0040510368738669311
121 0.013175333077196094 0.014162334723928305
122 0.0018847965623183804 0.0020259845543351696
123 0.0037687159547887816 0.0040510368738669311
124 0.0075339619783824086 0.0080983536985028692
125 0.0018847965623183804 0.0020259845543351696
126 0.011295743291981297 0.012141924053522324
127 0.0056517720792853554 0.0060751582634833712
128 0.0056517720792853554 0.0060751582634833712
129 0.018808929661635387 0.02021792888685936
130 0.0056517720792853554 0.0060751582634833712
131 0.078417379502799089 0.084291879753282339
132 0.0075339619783824086 0.0080983536985028692
133 0.018808929661635387 0.02021792888685936
134 0.0037687159547887816 0.0040510368738669311
135 0.0037687159547887816 0.0040510368738669311
136 0.018808929661635387 0.02021792888685936
137 0.072866468518574867 0.078325131313519702
138 0.0056517720792853554 0.0060751582634833712
139 0.0094152805291729535 0.010120615970911018
140 0.0037687159547887816 0.0040510368738669311
141 0.0018847965623183804 0.0020259845543351696
142 0.011295743291981297 0.012141924053522324
143 0.0094152805291729535 0.010120615970911018
144 0.0094152805291729535 0.010120615970911018
145 0.024434693297673726 0.026265162559605426
146 0.0094152805291729535 0.010120615970911018
147 0.0037687159547887816 0.0040510368738669311
148 0.0037687159547887816 0.0040510368738669311
149 0.0094152805291729535 0.010120615970911018
150 0.0094152805291729535 0.010120615970911018
151 0.0018847965623183804 0.0020259845543351696
152 0.0018847965623183804 0.0020259845543351696
153 0.018808929661635387 0.02021792888685936
154 0.031923642474161185 0.034315136497537979
155 0.016931913205957883 0.018200351965311112
156 0.21113340133020059 0.22694947763952172
157 0.0075339619783824086 0.0080983536985028692
158 0.0056517720792853554 0.0060751582634833712
159 0.063597821997331327 0.068362130137937072
160 0.0018847965623183804 0.0020259845543351696
161 0.013175333077196094 0.014162334723928305
162 0.0037687159547887816 0.0040510368738669311
163 0.078417379502799089 0.084291879753282339
164 0.0037687159547887816 0.0040510368738669311
165 0.02256030383362323 0.024250354743841573
166 0.0037687159547887816 0.0040510368738669311
167 0.0094152805291729535 0.010120615970911018
168 0.0018847965623183804 0.0020259845543351696
169 0.1133946096698587 0.12188928409147864
170 0.0075339619783824086 0.0080983536985028692
171 0.044996078959746666 0.048366891842833992
172 0.0056517720792853554 0.0060751582634833712
173 0.0037687159547887816 0.0040510368738669311
174 0.048723314927922867 0.052373316227978028
175 0.0075339619783824086 0.0080983536985028692
176 0.0075339619783824086 0.0080983536985028692
177 0.0094152805291729535 0.010120615970911018
178 0.0018847965623183804 0.0020259845543351696
179 0.015054044535755096 0.016181786977069512
180 0.0018847965623183804 0.0020259845543351696
181 0.024434693297673726 0.026265162559605426
182 0.0037687159547887816 0.0040510368738669311
183 0.03753128179416948 0.04034286856837338
184 0.0075339619783824086 0.0080983536985028692
185 0.0037687159547887816 0.0040510368738669311
186 0.10238246770749954 0.11005220601925036
187 0.016931913205957883 0.018200351965311112
188 0.039398780869173256 0.042350264388851033
189 0.031923642474161185 0.034315136497537979
190 0.028180888685300942 0.030292008763568801
191 0.013175333077196094 0.014162334723928305
192 0.11522691905367394 0.12385890138509492
193 0.02256030383362323 0.024250354743841573
194 0.039398780869173256 0.042350264388851033
195 0.026308229673673189 0.028279091636054299
196 0.082113719659672568 0.088265112451716143
197 0.061741506064522611 0.066366748426554878
198 0.087651771499637487 0.094218031355873089
199 0.0018847965623183804 0.0020259845543351696
200 0.050585643271548797 0.054375160598862271
201 0.0037687159547887816 0.0040510368738669311
202 0.13168012924777533 0.14154470439692918
203 0.031923642474161185 0.034315136497537979
204 0.013175333077196094 0.014162334723928305
205 0.0075339619783824086 0.0080983536985028692
206 0.020685037171783716 0.022234605328460111
207 0.031923642474161185 0.034315136497537979
208 0.041265410957331605 0.044356728808729429
209 0.011295743291981297 0.012141924053522324
210 0.0094152805291729535 0.010120615970911018
211 0.035662937684900031 0.038334557019430893
212 0.061741506064522611 0.066366748426554878
213 0.061741506064522611 0.066366748426554878
214 0.0094152805291729535 0.010120615970911018
215 0.0075339619783824086 0.0080983536985028692
216 0.013175333077196094 0.014162334723928305
217 0.0075339619783824086 0.0080983536985028692
218 0.0056517720792853554 0.0060751582634833712
219 0.0018847965623183804 0.0020259845543351696
220 0.041265410957331605 0.044356728808729429
221 0.011295743291981297 0.012141924053522324
222 0.0037687159547887816 0.0040510368738669311
223 0.011295743291981297 0.012141924053522324
224 0.052447102957942415 0.056376065540140186
225 0.020685037171783716 0.022234605328460111
226 0.0075339619783824086 0.0080983536985028692
227 0.0037687159547887816 0.0040510368738669311
228 0.041265410957331605 0.044356728808729429
229 0.0075339619783824086 0.0080983536985028692
230 0.0037687159547887816 0.0040510368738669311
231 0.0018847965623183804 0.0020259845543351696
232 0.0056517720792853554 0.0060751582634833712
233 0.0018847965623183804 0.0020259845543351696
234 0.018808929661635387 0.02021792888685936
235 0.030052700555338152 0.032304034023673323
236 0.22718461615673163 0.24420355146797812
237 0.0018847965623183804 0.0020259845543351696
238 0.011295743291981297 0.012141924053522324
239 0.030052700555338152 0.032304034023673323
240 0.07471762841801971 0.080314980986678719
241 0.0075339619783824086 0.0080983536985028692
242 0.0037687159547887816 0.0040510368738669311
243 0.0018847965623183804 0.0020259845543351696
244 0.0018847965623183804 0.0020259845543351696
245 0.048723314927922867 0.052373316227978028
246 0.020685037171783716 0.022234605328460111
247 0.0037687159547887816 0.0040510368738669311
248 0.0075339619783824086 0.0080983536985028692
249 0.033793716695717235 0.036325305744491443
250 0.0018847965623183804 0.0020259845543351696
251 0.028180888685300942 0.030292008763568801
252 0.018808929661635387 0.02021792888685936
253 0.0056517720792853554 0.0060751582634833712
254 0.016931913205957883 0.018200351965311112
255 0.011295743291981297 0.012141924053522324
256 0.0056517720792853554 0.0060751582634833712
257 0.0075339619783824086 0.0080983536985028692
258 0.0037687159547887816 0.0040510368738669311
259 0.015054044535755096 0.016181786977069512
260 0.030052700555338152 0.032304034023673323
261 0.0056517720792853554 0.0060751582634833712
262 0.039398780869173256 0.042350264388851033
263 0.0018847965623183804 0.0020259845543351696
264 0.011295743291981297 0.012141924053522324
265 0.0037687159547887816 0.0040510368738669311
266 0.016931913205957883 0.018200351965311112
267 0.030052700555338152 0.032304034023673323
268 0.030052700555338152 0.032304034023673323
269 0.013175333077196094 0.014162334723928305
270 0.018808929661635387 0.02021792888685936
271 0.0094152805291729535 0.010120615970911018
272 0.0037687159547887816 0.0040510368738669311
273 0.035662937684900031 0.038334557019430893
274 0.0037687159547887816 0.0040510368738669311
275 0.0075339619783824086 0.0080983536985028692
276 0.0056517720792853554 0.0060751582634833712
277 0.026308229673673189 0.028279091636054299
278 0.018808929661635387 0.02021792888685936
279 0.0018847965623183804 0.0020259845543351696
280 0.015054044535755096 0.016181786977069512
281 0.0075339619783824086 0.0080983536985028692
282 0.0018847965623183804 0.0020259845543351696
283 0.0075339619783824086 0.0080983536985028692
284 0.016931913205957883 0.018200351965311112
285 0.0056517720792853554 0.0060751582634833712
286 0.069161607943977466 0.074342705099786965
287 0.020685037171783716 0.022234605328460111
288 0.0094152805291729535 0.010120615970911018
289 0.031923642474161185 0.034315136497537979
290 0.013175333077196094 0.014162334723928305
291 0.015054044535755096 0.016181786977069512
292 0.0094152805291729535 0.010120615970911018
293 0.035662937684900031 0.038334557019430893
294 0.0056517720792853554 0.0060751582634833712
295 0.02256030383362323 0.024250354743841573
296 0.0018847965623183804 0.0020259845543351696
297 0.0018847965623183804 0.0020259845543351696
298 0.028180888685300942 0.030292008763568801
299 0.011295743291981297 0.012141924053522324
300 0.011295743291981297 0.012141924053522324
301 0.0037687159547887816 0.0040510368738669311
302 0.0018847965623183804 0.0020259845543351696
303 0.0037687159547887816 0.0040510368738669311
304 0.0037687159547887816 0.0040510368738669311
305 0.0075339619783824086 0.0080983536985028692
306 0.0018847965623183804 0.0020259845543351696
307 0.011295743291981297 0.012141924053522324
308 0.0075339619783824086 0.0080983536985028692
309 0.0018847965623183804 0.0020259845543351696
310 0.0018847965623183804 0.0020259845543351696
311 0.0094152805291729535 0.010120615970911018
312 0.011295743291981297 0.012141924053522324
313 0.0056517720792853554 0.0060751582634833712
314 0.0037687159547887816 0.0040510368738669311
315 0.0056517720792853554 0.0060751582634833712
316 0.0018847965623183804 0.0020259845543351696
317 0.0018847965623183804 0.0020259845543351696
318 0.0056517720792853554 0.0060751582634833712
319 0.0018847965623183804 0.0020259845543351696
320 0.0018847965623183804 0.0020259845543351696
321 0.024434693297673726 0.026265162559605426
322 0.026308229673673189 0.028279091636054299
323 0.011295743291981297 0.012141924053522324
324 0.0075339619783824086 0.0080983536985028692
325 0.013175333077196094 0.014162334723928305
326 0.0075339619783824086 0.0080983536985028692
327 0.0056517720792853554 0.0060751582634833712
328 0.044996078959746666 0.048366891842833992
329 0.011295743291981297 0.012141924053522324
330 0.016931913205957883 0.018200351965311112
331 0.0018847965623183804 0.0020259845543351696
332 0.011295743291981297 0.012141924053522324
333 0.011295743291981297 0.012141924053522324
334 0.0037687159547887816 0.0040510368738669311
335 0.015054044535755096 0.016181786977069512
336 0.02256030383362323 0.024250354743841573
337 0.039398780869173256 0.042350264388851033
338 0.0018847965623183804 0.0020259845543351696
339 0.0075339619783824086 0.0080983536985028692
340 0.011295743291981297 0.012141924053522324
341 0.0018847965623183804 0.0020259845543351696
342 0.0018847965623183804 0.0020259845543351696
343 0.0037687159547887816 0.0040510368738669311
344 0.0037687159547887816 0.0040510368738669311
345 0.013175333077196094 0.014162334723928305
346 0.0037687159547887816 0.0040510368738669311
347 0.0018847965623183804 0.0020259845543351696
348 0.0037687159547887816 0.0040510368738669311
349 0.0075339619783824086 0.0080983536985028692
350 0.0037687159547887816 0.0040510368738669311
351 0.0018847965623183804 0.0020259845543351696
352 0.0094152805291729535 0.010120615970911018
353 0.0018847965623183804 0.0020259845543351696
354 0.0037687159547887816 0.0040510368738669311
355 0.0056517720792853554 0.0060751582634833712
356 0.0018847965623183804 0.0020259845543351696
357 0.011295743291981297 0.012141924053522324
358 0.0018847965623183804 0.0020259845543351696
359 0.011295743291981297 0.012141924053522324
360 0.020685037171783716 0.022234605328460111
361 0.020685037171783716 0.022234605328460111
362 0.0075339619783824086 0.0080983536985028692
363 0.0094152805291729535 0.010120615970911018
364 0.0075339619783824086 0.0080983536985028692
365 0.0037687159547887816 0.0040510368738669311
366 0.0037687159547887816 0.0040510368738669311
367 0.0018847965623183804 0.0020259845543351696
368 0.0037687159547887816 0.0040510368738669311
369 0.0018847965623183804 0.0020259845543351696
370 0.0056517720792853554 0.0060751582634833712
371 0.0056517720792853554 0.0060751582634833712
372 0.0018847965623183804 0.0020259845543351696
373 0.0018847965623183804 0.0020259845543351696
374 0.0056517720792853554 0.0060751582634833712
375 0.0037687159547887816 0.0040510368738669311
376 0.0075339619783824086 0.0080983536985028692
377 0.0056517720792853554 0.0060751582634833712
378 0.0018847965623183804 0.0020259845543351696
379 0.0018847965623183804 0.0020259845543351696
380 0.0018847965623183804 0.0020259845543351696
381 0.0037687159547887816 0.0040510368738669311
382 0.0018847965623183804 0.0020259845543351696
383 0.0037687159547887816 0.0040510368738669311
384 0.0037687159547887816 0.0040510368738669311
385 0.0018847965623183804 0.0020259845543351696
386 0.0037687159547887816 0.0040510368738669311
387 0.0037687159547887816 0.0040510368738669311
388 0.0018847965623183804 0.0020259845543351696
389 0.0018847965623183804 0.0020259845543351696
390 0.0056517720792853554 0.0060751582634833712
391 0.0037687159547887816 0.0040510368738669311
392 0.0037687159547887816 0.0040510368738669311
393 0.0018847965623183804 0.0020259845543351696
394 0.0037687159547887816 0.0040510368738669311
395 0.0018847965623183804 0.0020259845543351696
396 0.0037687159547887816 0.0040510368738669311
397 0.0018847965623183804 0.0020259845543351696
398 0.0037687159547887816 0.0040510368738669311
399 0.0018847965623183804 0.0020259845543351696
400 0.0056517720792853554 0.0060751582634833712
401 0.0075339619783824086 0.0080983536985028692
402 0.0018847965623183804 0.0020259845543351696
403 0.0056517720792853554 0.0060751582634833712
404 0.0037687159547887816 0.0040510368738669311
405 0.0018847965623183804 0.0020259845543351696
406 0.0018847965623183804 0.0020259845543351696
407 0.0075339619783824086 0.0080983536985028692
408 0.0018847965623183804 0.0020259845543351696
409 0.0018847965623183804 0.0020259845543351696
410 0.0037687159547887816 0.0040510368738669311
411 0.0018847965623183804 0.0020259845543351696
412 0.0018847965623183804 0.0020259845543351696
413 0.0037687159547887816 0.0040510368738669311
414 0.0018847965623183804 0.0020259845543351696
415 0.0018847965623183804 0.0020259845543351696
416 0.0018847965623183804 0.0020259845543351696
