# #Node_id x y  #rho: ME:0.40306698343202607 AB:0.011281892053359832 B:1 W:0.17697881828316619 AW:0.010531210921466392
0 0.33019766469272049 0.069189454481423468
1 5.1739051048369342 1.0841375031390899
2 2.3290516768446987 0.48802833033325649
3 0.84292075135149935 0.17662519512775826
4 0.27293970317817429 0.057191649695019595
5 0.88268725869255649 0.18495784930361336
6 3.9194408496234443 0.82127768683651226
7 0.65494339110032485 0.13723651252535424
8 0.48434775152481635 0.10148998703092661
9 1.2282304572446028 0.25736279931993422
10 2.5947194181551976 0.54369621675423796
11 7.7318648695019583 1.6201311203783448
12 0.1155296103720856 0.024208017114641534
13 3.254744554054998 0.68199755555817299
14 6.5476919195209495 1.3720001092244696
15 1.1822947897574414 0.24773746239444625
16 1.0928166672079989 0.2289882610850458
17 1.6791351837697486 0.35184515152070805
18 1.1371597180268209 0.23827988190571972
19 1.3709280347048152 0.28726357874998054
20 0.48434775152481635 0.10148998703092661
21 4.0080290200032147 0.83984040801077864
22 0.14030851604497344 0.029400176688965374
23 4.2814479103555767 0.89713246634801713
24 0.1155296103720856 0.024208017114641534
25 2.8049088073641499 0.58773919686035581
26 2.733781616746477 0.57283524070363578
27 1.7889000882443185 0.37484523502786476
28 0.84292075135149935 0.17662519512775826
29 0.69111767296484083 0.14481645356095219
30 2.4598387633560996 0.51543339141193012
31 0.3899425789075901 0.081708374100111197
32 1.4702237282502399 0.30806994900446344
33 2.2022720350183054 0.46146298722133655
34 0.61946424615434659 0.12980223013403527
35 1.6791351837697486 0.35184515152070805
36 0.8038884595826844 0.16844638811785076
37 6.1832316045743294 1.2956312760446638
38 0.24522575514573294 0.05138448280401367
39 5.6073795285029711 1.174967518345317
40 0.61946424615434659 0.12980223013403527
41 2.2022720350183054 0.46146298722133655
42 0.30126134162469687 0.063126151733240821
43 0.14030851604497344 0.029400176688965374
44 0.69111767296484083 0.14481645356095219
45 0.30126134162469687 0.063126151733240821
46 0.1155296103720856 0.024208017114641534
47 0.65494339110032485 0.13723651252535424
48 0.21811254837464891 0.045703194938215674
49 5.6073795285029711 1.174967518345317
50 0.45223137631964377 0.094760337739085501
51 0.45223137631964377 0.094760337739085501
52 2.8049088073641499 0.58773919686035581
53 0.84292075135149935 0.17662519512775826
54 2.2651662372148027 0.47464180707782294
55 0.24522575514573294 0.05138448280401367
56 4.0978837878816599 0.85866853139513188
57 0.96445511026798814 0.20209144426676029
58 0.8038884595826844 0.16844638811785076
59 0.24522575514573294 0.05138448280401367
60 1.3709280347048152 0.28726357874998054
61 2.2651662372148027 0.47464180707782294
62 0.24522575514573294 0.05138448280401367
63 4.0978837878816599 0.85866853139513188
64 0.72799476984675227 0.15254366210584935
65 2.8771152422730597 0.60286929732926087
66 1.9023063999842786 0.39860833720285843
67 0.76558242726821879 0.16041976115290182
68 0.14030851604497344 0.029400176688965374
69 0.14030851604497344 0.029400176688965374
70 2.0794155123951237 0.43571969255662935
71 0.65494339110032485 0.13723651252535424
72 0.16566077478534527 0.034712476379972421
73 0.067664867071558069 0.014178462602380672
74 0.45223137631964377 0.094760337739085501
75 1.4702237282502399 0.30806994900446344
76 1.7889000882443185 0.37484523502786476
77 1.8451432039205751 0.38663038952190881
78 0.35975571367133785 0.07538303336778196
79 1.2282304572446028 0.25736279931993422
80 0.044565611777111207 0.0093382561332125153
81 0.30126134162469687 0.063126151733240821
82 4.1890188120381238 0.87776491904343967
83 0.30126134162469687 0.063126151733240821
84 0.42076540173017751 0.088166973068873375
85 0.044565611777111207 0.0093382561332125153
86 0.1155296103720856 0.024208017114641534
87 0.19159317669194881 0.040146338981576803
88 0.16566077478534527 0.034712476379972421
89 0.022012869742043147 0.0046125657806815514
90 0.067664867071558069 0.014178462602380672
91 0.091317301962205541 0.019134582049088945
92 0.1155296103720856 0.024208017114641534
93 0.14030851604497344 0.029400176688965374
94 0.51712183262594513 0.10835745168918529
95 1.9603995297250436 0.41078114272413063
96 0.33019766469272049 0.069189454481423468
97 0.42076540173017751 0.088166973068873375
98 0.24522575514573294 0.05138448280401367
99 0.1155296103720856 0.024208017114641534
100 2.0794155123951237 0.43571969255662935
101 0.022012869742043147 0.0046125657806815514
102 0.044565611777111207 0.0093382561332125153
103 0.022012869742043147 0.0046125657806815514
104 0.19159317669194881 0.040146338981576803
105 0.45223137631964377 0.094760337739085501
106 5.0691800204623689 1.0621934610298083
107 0.14030851604497344 0.029400176688965374
108 0.022012869742043147 0.0046125657806815514
109 0.044565611777111207 0.0093382561332125153
110 0.65494339110032485 0.13723651252535424
111 0.022012869742043147 0.0046125657806815514
112 0.022012869742043147 0.0046125657806815514
113 0.1155296103720856 0.024208017114641534
114 0.091317301962205541 0.019134582049088945
115 0.92319601060423051 0.19344603303774213
116 0.16566077478534527 0.034712476379972421
117 0.022012869742043147 0.0046125657806815514
118 0.022012869742043147 0.0046125657806815514
119 1.9023063999842786 0.39860833720285843
120 0.044565611777111207 0.0093382561332125153
121 0.1155296103720856 0.024208017114641534
122 0.022012869742043147 0.0046125657806815514
123 0.044565611777111207 0.0093382561332125153
124 0.091317301962205541 0.019134582049088945
125 0.022012869742043147 0.0046125657806815514
126 0.14030851604497344 0.029400176688965374
127 0.044565611777111207 0.0093382561332125153
128 0.067664867071558069 0.014178462602380672
129 0.19159317669194881 0.040146338981576803
130 0.044565611777111207 0.0093382561332125153
131 1.4702237282502399 0.30806994900446344
132 0.091317301962205541 0.019134582049088945
133 0.21811254837464891 0.045703194938215674
134 0.044565611777111207 0.0093382561332125153
135 0.044565611777111207 0.0093382561332125153
136 0.24522575514573294 0.05138448280401367
137 1.0064727363329575 0.21089579674074316
138 0.067664867071558069 0.014178462602380672
139 0.1155296103720856 0.024208017114641534
140 0.044565611777111207 0.0093382561332125153
141 0.022012869742043147 0.0046125657806815514
142 0.14030851604497344 0.029400176688965374
143 0.1155296103720856 0.024208017114641534
144 0.091317301962205541 0.019134582049088945
145 0.30126134162469687 0.063126151733240821
146 0.1155296103720856 0.024208017114641534
147 0.044565611777111207 0.0093382561332125153
148 0.044565611777111207 0.0093382561332125153
149 0.091317301962205541 0.019134582049088945
150 0.1155296103720856 0.024208017114641534
151 0.022012869742043147 0.0046125657806815514
152 0.022012869742043147 0.0046125657806815514
153 0.24522575514573294 0.05138448280401367
154 0.42076540173017751 0.088166973068873375
155 0.19159317669194881 0.040146338981576803
156 3.7460104471762303 0.7849371665394187
157 0.091317301962205541 0.019134582049088945
158 0.067664867071558069 0.014178462602380672
159 0.96445511026798814 0.20209144426676029
160 0.022012869742043147 0.0046125657806815514
161 0.14030851604497344 0.029400176688965374
162 0.044565611777111207 0.0093382561332125153
163 1.1371597180268209 0.23827988190571972
164 0.044565611777111207 0.0093382561332125153
165 0.24522575514573294 0.05138448280401367
166 0.044565611777111207 0.0093382561332125153
167 0.091317301962205541 0.019134582049088945
168 0.022012869742043147 0.0046125657806815514
169 1.572934835987382 0.32959198345049495
170 0.091317301962205541 0.019134582049088945
171 0.61946424615434659 0.12980223013403527
172 0.067664867071558069 0.014178462602380672
173 0.044565611777111207 0.0093382561332125153
174 0.61946424615434659 0.12980223013403527
175 0.067664867071558069 0.014178462602380672
176 0.091317301962205541 0.019134582049088945
177 0.091317301962205541 0.019134582049088945
178 0.022012869742043147 0.0046125657806815514
179 0.19159317669194881 0.040146338981576803
180 0.022012869742043147 0.0046125657806815514
181 0.33019766469272049 0.069189454481423468
182 0.044565611777111207 0.0093382561332125153
183 0.51712183262594513 0.10835745168918529
184 0.091317301962205541 0.019134582049088945
185 0.044565611777111207 0.0093382561332125153
186 1.6255941830223697 0.34062619684533924
187 0.14030851604497344 0.029400176688965374
188 0.45223137631964377 0.094760337739085501
189 0.35975571367133785 0.07538303336778196
190 0.3899425789075901 0.081708374100111197
191 0.16566077478534527 0.034712476379972421
192 1.9023063999842786 0.39860833720285843
193 0.30126134162469687 0.063126151733240821
194 0.58467262600872572 0.12251201134753914
195 0.33019766469272049 0.069189454481423468
196 1.2749753783030049 0.26715770683637036
197 0.8038884595826844 0.16844638811785076
198 1.3709280347048152 0.28726357874998054
199 0.022012869742043147 0.0046125657806815514
200 0.69111767296484083 0.14481645356095219
201 0.044565611777111207 0.0093382561332125153
202 1.9603995297250436 0.41078114272413063
203 0.42076540173017751 0.088166973068873375
204 0.14030851604497344 0.029400176688965374
205 0.091317301962205541 0.019134582049088945
206 0.21811254837464891 0.045703194938215674
207 0.45223137631964377 0.094760337739085501
208 0.51712183262594513 0.10835745168918529
209 0.1155296103720856 0.024208017114641534
210 0.1155296103720856 0.024208017114641534
211 0.51712183262594513 0.10835745168918529
212 0.76558242726821879 0.16041976115290182
213 1.0064727363329575 0.21089579674074316
214 0.1155296103720856 0.024208017114641534
215 0.091317301962205541 0.019134582049088945
216 0.16566077478534527 0.034712476379972421
217 0.091317301962205541 0.019134582049088945
218 0.067664867071558069 0.014178462602380672
219 0.022012869742043147 0.0046125657806815514
220 0.58467262600872572 0.12251201134753914
221 0.1155296103720856 0.024208017114641534
222 0.044565611777111207 0.0093382561332125153
223 0.14030851604497344 0.029400176688965374
224 0.84292075135149935 0.17662519512775826
225 0.27293970317817429 0.057191649695019595
226 0.067664867071558069 0.014178462602380672
227 0.044565611777111207 0.0093382561332125153
228 0.48434775152481635 0.10148998703092661
229 0.067664867071558069 0.014178462602380672
230 0.044565611777111207 0.0093382561332125153
231 0.022012869742043147 0.0046125657806815514
232 0.067664867071558069 0.014178462602380672
233 0.022012869742043147 0.0046125657806815514
234 0.24522575514573294 0.05138448280401367
235 0.42076540173017751 0.088166973068873375
236 6.0649491805545352 1.2708464357270075
237 0.022012869742043147 0.0046125657806815514
238 0.1155296103720856 0.024208017114641534
239 0.42076540173017751 0.088166973068873375
240 1.3225382949603017 0.27712401674388037
241 0.091317301962205541 0.019134582049088945
242 0.044565611777111207 0.0093382561332125153
243 0.022012869742043147 0.0046125657806815514
244 0.022012869742043147 0.0046125657806815514
245 0.76558242726821879 0.16041976115290182
246 0.21811254837464891 0.045703194938215674
247 0.044565611777111207 0.0093382561332125153
248 0.091317301962205541 0.019134582049088945
249 0.42076540173017751 0.088166973068873375
250 0.022012869742043147 0.0046125657806815514
251 0.3899425789075901 0.081708374100111197
252 0.24522575514573294 0.05138448280401367
253 0.067664867071558069 0.014178462602380672
254 0.21811254837464891 0.045703194938215674
255 0.091317301962205541 0.019134582049088945
256 0.067664867071558069 0.014178462602380672
257 0.067664867071558069 0.014178462602380672
258 0.044565611777111207 0.0093382561332125153
259 0.14030851604497344 0.029400176688965374
260 0.3899425789075901 0.081708374100111197
261 0.067664867071558069 0.014178462602380672
262 0.55056098304557377 0.11536427464176173
263 0.022012869742043147 0.0046125657806815514
264 0.14030851604497344 0.029400176688965374
265 0.044565611777111207 0.0093382561332125153
266 0.21811254837464891 0.045703194938215674
267 0.42076540173017751 0.088166973068873375
268 0.3899425789075901 0.081708374100111197
269 0.16566077478534527 0.034712476379972421
270 0.24522575514573294 0.05138448280401367
271 0.1155296103720856 0.024208017114641534
272 0.044565611777111207 0.0093382561332125153
273 0.3899425789075901 0.081708374100111197
274 0.044565611777111207 0.0093382561332125153
275 0.091317301962205541 0.019134582049088945
276 0.067664867071558069 0.014178462602380672
277 0.35975571367133785 0.07538303336778196
278 0.24522575514573294 0.05138448280401367
279 0.022012869742043147 0.0046125657806815514
280 0.16566077478534527 0.034712476379972421
281 0.091317301962205541 0.019134582049088945
282 0.022012869742043147 0.0046125657806815514
283 0.091317301962205541 0.019134582049088945
284 0.19159317669194881 0.040146338981576803
285 0.067664867071558069 0.014178462602380672
286 0.96445511026798814 0.20209144426676029
287 0.24522575514573294 0.05138448280401367
288 0.1155296103720856 0.024208017114641534
289 0.45223137631964377 0.094760337739085501
290 0.16566077478534527 0.034712476379972421
291 0.19159317669194881 0.040146338981576803
292 0.091317301962205541 0.019134582049088945
293 0.45223137631964377 0.094760337739085501
294 0.044565611777111207 0.0093382561332125153
295 0.30126134162469687 0.063126151733240821
296 0.022012869742043147 0.0046125657806815514
297 0.022012869742043147 0.0046125657806815514
298 0.3899425789075901 0.081708374100111197
299 0.14030851604497344 0.029400176688965374
300 0.14030851604497344 0.029400176688965374
301 0.044565611777111207 0.0093382561332125153
302 0.022012869742043147 0.0046125657806815514
303 0.044565611777111207 0.0093382561332125153
304 0.044565611777111207 0.0093382561332125153
305 0.091317301962205541 0.019134582049088945
306 0.022012869742043147 0.0046125657806815514
307 0.14030851604497344 0.029400176688965374
308 0.067664867071558069 0.014178462602380672
309 0.022012869742043147 0.0046125657806815514
310 0.022012869742043147 0.0046125657806815514
311 0.1155296103720856 0.024208017114641534
312 0.14030851604497344 0.029400176688965374
313 0.067664867071558069 0.014178462602380672
314 0.044565611777111207 0.0093382561332125153
315 0.067664867071558069 0.014178462602380672
316 0.022012869742043147 0.0046125657806815514
317 0.022012869742043147 0.0046125657806815514
318 0.067664867071558069 0.014178462602380672
319 0.022012869742043147 0.0046125657806815514
320 0.022012869742043147 0.0046125657806815514
321 0.33019766469272049 0.069189454481423468
322 0.35975571367133785 0.07538303336778196
323 0.14030851604497344 0.029400176688965374
324 0.091317301962205541 0.019134582049088945
325 0.16566077478534527 0.034712476379972421
326 0.091317301962205541 0.019134582049088945
327 0.067664867071558069 0.014178462602380672
328 0.69111767296484083 0.14481645356095219
329 0.1155296103720856 0.024208017114641534
330 0.19159317669194881 0.040146338981576803
331 0.022012869742043147 0.0046125657806815514
332 0.14030851604497344 0.029400176688965374
333 0.14030851604497344 0.029400176688965374
334 0.044565611777111207 0.0093382561332125153
335 0.16566077478534527 0.034712476379972421
336 0.27293970317817429 0.057191649695019595
337 0.58467262600872572 0.12251201134753914
338 0.022012869742043147 0.0046125657806815514
339 0.091317301962205541 0.019134582049088945
340 0.14030851604497344 0.029400176688965374
341 0.022012869742043147 0.0046125657806815514
342 0.022012869742043147 0.0046125657806815514
343 0.044565611777111207 0.0093382561332125153
344 0.044565611777111207 0.0093382561332125153
345 0.16566077478534527 0.034712476379972421
346 0.044565611777111207 0.0093382561332125153
347 0.022012869742043147 0.0046125657806815514
348 0.044565611777111207 0.0093382561332125153
349 0.091317301962205541 0.019134582049088945
350 0.044565611777111207 0.0093382561332125153
351 0.022012869742043147 0.0046125657806815514
352 0.1155296103720856 0.024208017114641534
353 0.022012869742043147 0.0046125657806815514
354 0.044565611777111207 0.0093382561332125153
355 0.067664867071558069 0.014178462602380672
356 0.022012869742043147 0.0046125657806815514
357 0.14030851604497344 0.029400176688965374
358 0.022012869742043147 0.0046125657806815514
359 0.14030851604497344 0.029400176688965374
360 0.24522575514573294 0.05138448280401367
361 0.27293970317817429 0.057191649695019595
362 0.091317301962205541 0.019134582049088945
363 0.1155296103720856 0.024208017114641534
364 0.091317301962205541 0.019134582049088945
365 0.044565611777111207 0.0093382561332125153
366 0.044565611777111207 0.0093382561332125153
367 0.022012869742043147 0.0046125657806815514
368 0.044565611777111207 0.0093382561332125153
369 0.022012869742043147 0.0046125657806815514
370 0.067664867071558069 0.014178462602380672
371 0.067664867071558069 0.014178462602380672
372 0.022012869742043147 0.0046125657806815514
373 0.022012869742043147 0.0046125657806815514
374 0.067664867071558069 0.014178462602380672
375 0.044565611777111207 0.0093382561332125153
376 0.091317301962205541 0.019134582049088945
377 0.067664867071558069 0.014178462602380672
378 0.022012869742043147 0.0046125657806815514
379 0.022012869742043147 0.0046125657806815514
380 0.022012869742043147 0.0046125657806815514
381 0.044565611777111207 0.0093382561332125153
382 0.022012869742043147 0.0046125657806815514
383 0.044565611777111207 0.0093382561332125153
384 0.044565611777111207 0.0093382561332125153
385 0.022012869742043147 0.0046125657806815514
386 0.044565611777111207 0.0093382561332125153
387 0.044565611777111207 0.0093382561332125153
388 0.022012869742043147 0.0046125657806815514
389 0.022012869742043147 0.0046125657806815514
390 0.067664867071558069 0.014178462602380672
391 0.044565611777111207 0.0093382561332125153
392 0.044565611777111207 0.0093382561332125153
393 0.022012869742043147 0.0046125657806815514
394 0.044565611777111207 0.0093382561332125153
395 0.022012869742043147 0.0046125657806815514
396 0.044565611777111207 0.0093382561332125153
397 0.022012869742043147 0.0046125657806815514
398 0.044565611777111207 0.0093382561332125153
399 0.022012869742043147 0.0046125657806815514
400 0.067664867071558069 0.014178462602380672
401 0.091317301962205541 0.019134582049088945
402 0.022012869742043147 0.0046125657806815514
403 0.067664867071558069 0.014178462602380672
404 0.044565611777111207 0.0093382561332125153
405 0.022012869742043147 0.0046125657806815514
406 0.022012869742043147 0.0046125657806815514
407 0.091317301962205541 0.019134582049088945
408 0.022012869742043147 0.0046125657806815514
409 0.022012869742043147 0.0046125657806815514
410 0.044565611777111207 0.0093382561332125153
411 0.022012869742043147 0.0046125657806815514
412 0.022012869742043147 0.0046125657806815514
413 0.044565611777111207 0.0093382561332125153
414 0.022012869742043147 0.0046125657806815514
415 0.022012869742043147 0.0046125657806815514
416 0.022012869742043147 0.0046125657806815514
