# #Node_id x y
0 0.092609380996500901 0.023491497091578561
1 0.045580434107622476 0.023491497091578561
2 0.21526465996096189 0.24937097212882448
3 0.045580434107622476 0.071576144543616937
4 0.0 0.0
5 0.022591952960775315 0.096120264781916084
6 0.0 0.023491497091578561
7 0.022591952960775315 0.023491497091578561
8 0.022591952960775315 0.0
9 0.022591952960775315 0.047359104184986359
10 0.022591952960775315 0.0
11 0.022591952960775315 0.023491497091578561
12 0.022591952960775315 0.023491497091578561
13 0.068929359326422357 0.096120264781916084
14 0.022591952960775315 0.023491497091578561
15 0.0 0.047359104184986359
16 0.045580434107622476 0.096120264781916084
17 0.022591952960775315 0.023491497091578561
18 0.045580434107622476 0.023491497091578561
19 0.0 0.071576144543616937
20 0.0 0.047359104184986359
21 0.045580434107622476 0.023491497091578561
22 0.022591952960775315 0.023491497091578561
23 0.045580434107622476 0.047359104184986359
24 0.045580434107622476 0.023491497091578561
25 0.022591952960775315 0.023491497091578561
26 0.0 0.023491497091578561
27 0.068929359326422357 0.023491497091578561
28 0.022591952960775315 0.023491497091578561
29 0.045580434107622476 0.0
30 0.21526465996096189 0.24937097212882448
31 0.0 0.047359104184986359
32 0.068929359326422357 0.071576144543616937
33 0.0 0.0
34 0.045580434107622476 0.0
35 0.022591952960775315 0.071576144543616937
36 0.068929359326422357 0.071576144543616937
37 0.0 0.023491497091578561
38 0.0 0.023491497091578561
39 0.0 0.023491497091578561
40 0.045580434107622476 0.071576144543616937
41 0.022591952960775315 0.0
42 0.045580434107622476 0.071576144543616937
43 0.022591952960775315 0.047359104184986359
44 0.0 0.023491497091578561
45 0.092609380996500901 0.071576144543616937
46 0.022591952960775315 0.0
47 0.022591952960775315 0.023491497091578561
48 0.068929359326422357 0.047359104184986359
49 0.022591952960775315 0.023491497091578561
50 0.0 0.0
51 0.022591952960775315 0.023491497091578561
52 0.0 0.047359104184986359
53 0.045580434107622476 0.12097261180275953
54 0.14087074490584117 0.14611717980161154
55 0.022591952960775315 0.023491497091578561
56 0.0 0.071576144543616937
57 0.045580434107622476 0.023491497091578561
58 0.0 0.0
59 0.022591952960775315 0.047359104184986359
60 0.0 0.0
61 0.0 0.0
62 0.16541573672957818 0.14611717980161154
63 0.022591952960775315 0.023491497091578561
64 0.092609380996500901 0.0
65 0.045580434107622476 0.023491497091578561
66 0.045580434107622476 0.023491497091578561
67 0.0 0.047359104184986359
68 0.022591952960775315 0.047359104184986359
69 0.022591952960775315 0.023491497091578561
70 0.022591952960775315 0.023491497091578561
71 0.022591952960775315 0.071576144543616937
72 0.022591952960775315 0.0
73 0.0 0.0
74 0.045580434107622476 0.0
75 0.022591952960775315 0.023491497091578561
76 0.022591952960775315 0.0
77 0.0 0.047359104184986359
78 0.022591952960775315 0.0
79 0.0 0.023491497091578561
80 0.0 0.023491497091578561
81 0.0 0.023491497091578561
82 0.045580434107622476 0.047359104184986359
83 0.84650856059432267 0.46708260618205399
84 0.022591952960775315 0.0
85 0.0 0.023491497091578561
86 0.022591952960775315 0.023491497091578561
87 0.0 0.0
88 0.022591952960775315 0.047359104184986359
89 0.022591952960775315 0.023491497091578561
90 0.068929359326422357 0.0
91 0.022591952960775315 0.0
92 0.068929359326422357 0.0
93 0.045580434107622476 0.071576144543616937
94 0.022591952960775315 0.023491497091578561
95 0.0 0.047359104184986359
96 0.022591952960775315 0.047359104184986359
97 0.0 0.023491497091578561
98 0.0 0.047359104184986359
99 0.0 0.047359104184986359
100 0.068929359326422357 0.023491497091578561
101 0.022591952960775315 0.047359104184986359
102 0.045580434107622476 0.023491497091578561
103 0.0 0.023491497091578561
104 0.045580434107622476 0.071576144543616937
105 0.0 0.023491497091578561
106 0.0 0.0
107 0.045580434107622476 0.047359104184986359
108 0.022591952960775315 0.047359104184986359
109 0.022591952960775315 0.023491497091578561
110 0.022591952960775315 0.023491497091578561
111 0.092609380996500901 0.12097261180275953
112 0.11659645768413072 0.096120264781916084
113 0.022591952960775315 0.023491497091578561
114 0.0 0.071576144543616937
115 0.14087074490584117 0.14611717980161154
116 0.0 0.0
117 0.0 0.023491497091578561
118 0.022591952960775315 0.0
119 0.0 0.023491497091578561
120 0.022591952960775315 0.0
121 0.0 0.047359104184986359
122 0.022591952960775315 0.023491497091578561
123 0.022591952960775315 0.047359104184986359
124 0.022591952960775315 0.0
125 0.022591952960775315 0.047359104184986359
126 0.0 0.023491497091578561
127 0.022591952960775315 0.0
128 0.068929359326422357 0.023491497091578561
129 0.022591952960775315 0.071576144543616937
130 0.022591952960775315 0.071576144543616937
131 0.022591952960775315 0.0
132 0.0 0.0
133 0.0 0.0
134 0.0 0.023491497091578561
135 0.045580434107622476 0.023491497091578561
136 0.022591952960775315 0.0
137 0.022591952960775315 0.047359104184986359
138 0.0 0.047359104184986359
139 0.022591952960775315 0.023491497091578561
140 0.24054699006480634 0.32936756299625081
141 0.022591952960775315 0.0
142 0.092609380996500901 0.023491497091578561
143 0.022591952960775315 0.023491497091578561
144 0.0 0.0
145 0.022591952960775315 0.023491497091578561
146 0.0 0.023491497091578561
147 0.0 0.047359104184986359
148 0.022591952960775315 0.0
149 0.022591952960775315 0.047359104184986359
150 0.045580434107622476 0.0
151 0.0 0.047359104184986359
152 0.0 0.023491497091578561
153 0.045580434107622476 0.047359104184986359
154 0.0 0.0
155 0.0 0.071576144543616937
156 0.26605609998462298 0.12097261180275953
157 0.11659645768413072 0.047359104184986359
158 0.16541573672957818 0.071576144543616937
159 0.0 0.023491497091578561
160 0.022591952960775315 0.0
161 0.0 0.0
162 0.0 0.023491497091578561
163 0.045580434107622476 0.023491497091578561
164 0.022591952960775315 0.0
165 0.045580434107622476 0.047359104184986359
166 0.045580434107622476 0.047359104184986359
167 0.022591952960775315 0.023491497091578561
168 0.0 0.047359104184986359
169 0.068929359326422357 0.023491497091578561
170 0.0 0.023491497091578561
171 0.045580434107622476 0.047359104184986359
172 0.0 0.023491497091578561
173 0.0 0.12097261180275953
174 0.0 0.023491497091578561
175 0.022591952960775315 0.047359104184986359
176 0.068929359326422357 0.071576144543616937
177 0.0 0.023491497091578561
178 0.045580434107622476 0.023491497091578561
179 0.0 0.023491497091578561
180 0.045580434107622476 0.023491497091578561
181 0.022591952960775315 0.023491497091578561
182 0.045580434107622476 0.096120264781916084
183 0.022591952960775315 0.0
184 0.068929359326422357 0.023491497091578561
185 0.0 0.023491497091578561
186 0.14087074490584117 0.19723018885759877
187 0.0 0.047359104184986359
188 0.0 0.023491497091578561
189 0.022591952960775315 0.047359104184986359
190 0.045580434107622476 0.023491497091578561
191 0.0 0.023491497091578561
192 0.0 0.0
193 0.022591952960775315 0.047359104184986359
194 0.068929359326422357 0.0
195 0.045580434107622476 0.0
196 0.045580434107622476 0.0
197 0.022591952960775315 0.047359104184986359
198 0.022591952960775315 0.023491497091578561
199 0.022591952960775315 0.0
200 0.0 0.023491497091578561
201 0.0 0.023491497091578561
202 0.045580434107622476 0.023491497091578561
203 0.0 0.0
204 0.045580434107622476 0.023491497091578561
205 0.14087074490584117 0.22317669821869321
206 0.022591952960775315 0.0
207 0.022591952960775315 0.023491497091578561
208 0.022591952960775315 0.0
209 0.022591952960775315 0.0
210 0.092609380996500901 0.023491497091578561
211 0.0 0.0
212 0.045580434107622476 0.0
213 0.045580434107622476 0.047359104184986359
214 0.022591952960775315 0.023491497091578561
215 0.0 0.0
216 0.022591952960775315 0.0
217 0.0 0.023491497091578561
218 0.068929359326422357 0.047359104184986359
219 0.022591952960775315 0.047359104184986359
220 0.022591952960775315 0.12097261180275953
221 0.19021760058709314 0.17154029207753677
222 0.045580434107622476 0.023491497091578561
223 0.022591952960775315 0.047359104184986359
224 0.0 0.0
225 0.022591952960775315 0.0
226 0.045580434107622476 0.0
227 0.068929359326422357 0.023491497091578561
228 0.045580434107622476 0.023491497091578561
229 0.068929359326422357 0.023491497091578561
230 0.045580434107622476 0.0
231 0.022591952960775315 0.0
232 0.0 0.0
233 0.022591952960775315 0.0
234 0.068929359326422357 0.0
235 0.0 0.047359104184986359
236 0.045580434107622476 0.023491497091578561
237 0.0 0.047359104184986359
238 0.092609380996500901 0.023491497091578561
239 0.045580434107622476 0.023491497091578561
240 0.022591952960775315 0.0
241 0.0 0.047359104184986359
242 0.0 0.047359104184986359
243 0.068929359326422357 0.0
244 0.0 0.023491497091578561
245 0.0 0.023491497091578561
246 0.022591952960775315 0.0
247 0.045580434107622476 0.047359104184986359
248 0.022591952960775315 0.047359104184986359
249 0.092609380996500901 0.096120264781916084
250 0.045580434107622476 0.023491497091578561
251 0.045580434107622476 0.023491497091578561
252 0.022591952960775315 0.071576144543616937
253 0.045580434107622476 0.0
254 0.0 0.0
255 0.045580434107622476 0.047359104184986359
256 0.045580434107622476 0.047359104184986359
257 0.022591952960775315 0.0
258 0.022591952960775315 0.023491497091578561
259 0.022591952960775315 0.071576144543616937
260 0.045580434107622476 0.047359104184986359
261 0.0 0.047359104184986359
262 0.0 0.0
263 0.0 0.023491497091578561
264 0.022591952960775315 0.047359104184986359
265 0.045580434107622476 0.023491497091578561
266 0.0 0.071576144543616937
267 0.16541573672957818 0.071576144543616937
268 0.045580434107622476 0.023491497091578561
269 0.022591952960775315 0.047359104184986359
270 0.0 0.047359104184986359
271 0.022591952960775315 0.023491497091578561
272 0.0 0.023491497091578561
273 0.068929359326422357 0.0
274 0.0 0.047359104184986359
275 0.0 0.0
276 0.11659645768413072 0.023491497091578561
277 0.022591952960775315 0.023491497091578561
278 0.022591952960775315 0.0
279 0.0 0.047359104184986359
280 0.022591952960775315 0.023491497091578561
281 0.045580434107622476 0.071576144543616937
282 0.022591952960775315 0.071576144543616937
283 0.16541573672957818 0.19723018885759877
284 0.0 0.047359104184986359
285 0.022591952960775315 0.0
286 0.022591952960775315 0.023491497091578561
287 0.068929359326422357 0.023491497091578561
288 0.022591952960775315 0.023491497091578561
289 0.045580434107622476 0.047359104184986359
290 0.022591952960775315 0.0
291 0.045580434107622476 0.023491497091578561
292 0.022591952960775315 0.047359104184986359
293 0.045580434107622476 0.047359104184986359
294 0.068929359326422357 0.047359104184986359
295 0.045580434107622476 0.023491497091578561
296 0.045580434107622476 0.0
297 0.092609380996500901 0.047359104184986359
298 0.0 0.047359104184986359
299 0.022591952960775315 0.047359104184986359
300 0.0 0.0
301 0.045580434107622476 0.047359104184986359
302 0.045580434107622476 0.0
303 0.0 0.0
304 0.092609380996500901 0.22317669821869321
305 0.022591952960775315 0.071576144543616937
306 0.045580434107622476 0.023491497091578561
307 0.0 0.023491497091578561
308 0.045580434107622476 0.0
309 0.022591952960775315 0.0
310 0.045580434107622476 0.0
311 0.045580434107622476 0.0
312 0.022591952960775315 0.023491497091578561
313 0.022591952960775315 0.0
314 0.0 0.023491497091578561
315 0.022591952960775315 0.0
316 0.068929359326422357 0.047359104184986359
317 0.0 0.023491497091578561
318 0.022591952960775315 0.047359104184986359
319 0.0 0.0
320 0.31772640730670032 0.38381807846287297
321 0.045580434107622476 0.0
322 0.022591952960775315 0.0
323 0.045580434107622476 0.0
324 0.0 0.0
325 0.93577348894086376 0.97182462176014006
326 0.068929359326422357 0.023491497091578561
327 0.022591952960775315 0.071576144543616937
328 0.0 0.0
329 0.022591952960775315 0.023491497091578561
330 0.022591952960775315 0.0
331 0.022591952960775315 0.19723018885759877
332 0.0 0.0
333 0.022591952960775315 0.047359104184986359
334 0.045580434107622476 0.0
335 0.0 0.023491497091578561
336 0.022591952960775315 0.0
337 0.022591952960775315 0.0
338 0.19021760058709314 0.12097261180275953
339 0.022591952960775315 0.0
340 0.045580434107622476 0.0
341 0.022591952960775315 0.0
342 0.0 0.023491497091578561
343 0.022591952960775315 0.047359104184986359
344 0.0 0.071576144543616937
345 0.022591952960775315 0.023491497091578561
346 0.0 0.023491497091578561
347 0.11659645768413072 0.12097261180275953
348 0.045580434107622476 0.0
349 0.022591952960775315 0.0
350 0.0 0.047359104184986359
351 0.0 0.047359104184986359
352 0.0 0.0
353 0.022591952960775315 0.023491497091578561
354 0.022591952960775315 0.071576144543616937
355 0.045580434107622476 0.071576144543616937
356 0.022591952960775315 0.0
357 0.0 0.047359104184986359
358 0.0 0.047359104184986359
359 0.092609380996500901 0.12097261180275953
360 0.11659645768413072 0.071576144543616937
361 0.092609380996500901 0.023491497091578561
362 0.022591952960775315 0.096120264781916084
363 0.045580434107622476 0.096120264781916084
364 0.045580434107622476 0.0
365 0.022591952960775315 0.023491497091578561
366 0.092609380996500901 0.023491497091578561
367 0.0 0.0
368 0.022591952960775315 0.023491497091578561
369 0.022591952960775315 0.047359104184986359
370 0.045580434107622476 0.12097261180275953
371 0.0 0.047359104184986359
372 0.068929359326422357 0.023491497091578561
373 0.0 0.0
374 0.022591952960775315 0.0
375 0.022591952960775315 0.023491497091578561
376 0.19021760058709314 0.30247280415810268
377 0.21526465996096189 0.22317669821869321
378 0.045580434107622476 0.023491497091578561
379 0.045580434107622476 0.023491497091578561
380 0.0 0.0
381 0.14087074490584117 0.071576144543616937
382 0.0 0.0
383 0.0 0.0
384 0.068929359326422357 0.023491497091578561
385 0.0 0.023491497091578561
386 0.0 0.023491497091578561
387 0.0 0.047359104184986359
388 0.0 0.047359104184986359
389 0.068929359326422357 0.14611717980161154
390 0.068929359326422357 0.096120264781916084
391 0.0 0.0
392 0.022591952960775315 0.023491497091578561
393 0.0 0.047359104184986359
394 0.068929359326422357 0.023491497091578561
395 0.092609380996500901 0.071576144543616937
396 0.068929359326422357 0.071576144543616937
397 0.022591952960775315 0.023491497091578561
398 0.068929359326422357 0.071576144543616937
399 0.022591952960775315 0.0
400 0.0 0.0
401 0.022591952960775315 0.023491497091578561
402 0.0 0.0
403 0.045580434107622476 0.047359104184986359
404 0.0 0.047359104184986359
405 0.0 0.0
406 0.0 0.071576144543616937
407 0.0 0.023491497091578561
408 0.022591952960775315 0.0
409 0.022591952960775315 0.12097261180275953
410 0.14087074490584117 0.071576144543616937
411 0.022591952960775315 0.0
412 0.022591952960775315 0.0
413 0.092609380996500901 0.12097261180275953
414 0.022591952960775315 0.023491497091578561
415 0.72985945599480395 0.97182462176014006
416 0.045580434107622476 0.047359104184986359
417 0.0 0.0
418 0.045580434107622476 0.071576144543616937
419 0.0 0.0
420 0.022591952960775315 0.071576144543616937
421 0.0 0.047359104184986359
422 0.0 0.0
423 0.022591952960775315 0.023491497091578561
424 0.0 0.023491497091578561
425 0.24054699006480634 0.14611717980161154
426 0.022591952960775315 0.0
427 0.0 0.023491497091578561
428 0.11659645768413072 0.19723018885759877
429 0.16541573672957818 0.19723018885759877
430 0.045580434107622476 0.047359104184986359
431 0.022591952960775315 0.047359104184986359
432 0.092609380996500901 0.0
433 0.0 0.023491497091578561
434 0.0 0.023491497091578561
435 0.0 0.047359104184986359
436 0.045580434107622476 0.023491497091578561
437 0.0 0.023491497091578561
438 0.022591952960775315 0.047359104184986359
439 0.0 0.047359104184986359
440 0.045580434107622476 0.096120264781916084
441 0.045580434107622476 0.023491497091578561
442 0.0 0.047359104184986359
443 0.0 0.071576144543616937
444 0.092609380996500901 0.096120264781916084
445 0.068929359326422357 0.047359104184986359
446 0.045580434107622476 0.047359104184986359
447 0.19021760058709314 0.12097261180275953
448 0.0 0.0
449 0.16541573672957818 0.096120264781916084
450 0.0 0.0
451 0.022591952960775315 0.047359104184986359
452 0.022591952960775315 0.047359104184986359
453 0.022591952960775315 0.0
454 0.045580434107622476 0.071576144543616937
455 0.022591952960775315 0.071576144543616937
456 0.0 0.071576144543616937
457 0.0 0.023491497091578561
458 0.045580434107622476 0.071576144543616937
459 0.068929359326422357 0.023491497091578561
460 0.022591952960775315 0.0
461 0.0 0.0
462 0.0 0.0
463 0.045580434107622476 0.023491497091578561
464 0.022591952960775315 0.0
465 0.0 0.0
466 0.022591952960775315 0.071576144543616937
467 0.068929359326422357 0.047359104184986359
468 0.0 0.023491497091578561
469 0.068929359326422357 0.023491497091578561
470 0.092609380996500901 0.023491497091578561
471 0.045580434107622476 0.0
472 0.022591952960775315 0.023491497091578561
473 0.0 0.047359104184986359
474 0.045580434107622476 0.0
475 0.022591952960775315 0.023491497091578561
476 0.022591952960775315 0.0
477 0.0 0.0
478 0.045580434107622476 0.023491497091578561
479 0.068929359326422357 0.0
480 0.045580434107622476 0.047359104184986359
481 0.045580434107622476 0.023491497091578561
482 0.0 0.023491497091578561
483 0.0 0.071576144543616937
484 0.022591952960775315 0.0
485 0.022591952960775315 0.047359104184986359
486 0.022591952960775315 0.0
487 0.022591952960775315 0.023491497091578561
488 0.022591952960775315 0.023491497091578561
489 0.0 0.047359104184986359
490 0.0 0.047359104184986359
491 0.022591952960775315 0.023491497091578561
492 0.0 0.0
493 0.0 0.023491497091578561
494 0.045580434107622476 0.023491497091578561
495 0.0 0.023491497091578561
496 0.022591952960775315 0.071576144543616937
497 0.092609380996500901 0.12097261180275953
498 0.022591952960775315 0.0
499 0.022591952960775315 0.047359104184986359
500 0.0 0.023491497091578561
501 0.0 0.0
502 0.0 0.023491497091578561
503 0.022591952960775315 0.0
504 0.022591952960775315 0.096120264781916084
505 0.0 0.071576144543616937
506 0.0 0.0
507 0.0 0.023491497091578561
508 0.022591952960775315 0.023491497091578561
509 0.0 0.023491497091578561
510 0.022591952960775315 0.0
511 0.0 0.071576144543616937
512 0.022591952960775315 0.023491497091578561
513 0.11659645768413072 0.047359104184986359
514 0.022591952960775315 0.0
515 0.0 0.0
516 0.64417677982947597 0.27580527360982127
517 0.045580434107622476 0.023491497091578561
518 0.14087074490584117 0.19723018885759877
519 0.068929359326422357 0.071576144543616937
520 0.045580434107622476 0.0
521 0.0 0.0
522 0.0 0.023491497091578561
523 0.0 0.023491497091578561
524 0.045580434107622476 0.0
525 0.022591952960775315 0.023491497091578561
526 0.0 0.023491497091578561
527 0.0 0.047359104184986359
528 0.022591952960775315 0.047359104184986359
529 0.0 0.047359104184986359
530 0.045580434107622476 0.071576144543616937
531 0.022591952960775315 0.023491497091578561
532 0.0 0.047359104184986359
533 0.0 0.023491497091578561
534 0.022591952960775315 0.023491497091578561
535 0.0 0.0
536 0.022591952960775315 0.023491497091578561
537 0.0 0.0
538 0.092609380996500901 0.023491497091578561
539 0.045580434107622476 0.096120264781916084
540 0.022591952960775315 0.023491497091578561
541 0.068929359326422357 0.0
542 0.045580434107622476 0.0
543 0.022591952960775315 0.0
544 0.022591952960775315 0.0
545 0.022591952960775315 0.047359104184986359
546 0.045580434107622476 0.0
547 0.0 0.071576144543616937
548 0.092609380996500901 0.047359104184986359
549 0.045580434107622476 0.0
550 0.092609380996500901 0.023491497091578561
551 0.022591952960775315 0.023491497091578561
552 0.0 0.0
553 0.11659645768413072 0.14611717980161154
554 0.045580434107622476 0.071576144543616937
555 0.045580434107622476 0.0
556 0.022591952960775315 0.0
557 0.14087074490584117 0.24937097212882448
558 0.022591952960775315 0.0
559 0.022591952960775315 0.0
560 0.068929359326422357 0.12097261180275953
561 0.092609380996500901 0.071576144543616937
562 0.022591952960775315 0.047359104184986359
563 0.022591952960775315 0.0
564 0.0 0.023491497091578561
565 0.0 0.047359104184986359
566 0.045580434107622476 0.023491497091578561
567 0.045580434107622476 0.047359104184986359
568 0.068929359326422357 0.023491497091578561
569 0.045580434107622476 0.0
570 0.0 0.047359104184986359
571 0.0 0.0
572 0.045580434107622476 0.023491497091578561
573 0.0 0.0
574 0.0 0.023491497091578561
575 0.022591952960775315 0.023491497091578561
576 0.0 0.0
577 0.022591952960775315 0.023491497091578561
578 0.0 0.023491497091578561
579 0.0 0.0
580 0.022591952960775315 0.023491497091578561
581 0.022591952960775315 0.023491497091578561
582 0.14087074490584117 0.071576144543616937
583 0.0 0.0
584 0.022591952960775315 0.023491497091578561
585 0.022591952960775315 0.023491497091578561
586 0.0 0.0
587 0.022591952960775315 0.023491497091578561
588 0.0 0.023491497091578561
589 0.0 0.0
590 0.0 0.023491497091578561
591 0.045580434107622476 0.023491497091578561
592 0.045580434107622476 0.0
593 0.045580434107622476 0.0
594 0.022591952960775315 0.023491497091578561
595 0.022591952960775315 0.096120264781916084
596 0.0 0.047359104184986359
597 0.0 0.0
598 0.0 0.0
599 0.045580434107622476 0.023491497091578561
600 0.022591952960775315 0.0
601 0.068929359326422357 0.096120264781916084
602 0.0 0.0
603 0.092609380996500901 0.17154029207753677
604 0.068929359326422357 0.0
605 0.045580434107622476 0.023491497091578561
606 0.022591952960775315 0.12097261180275953
607 0.0 0.023491497091578561
608 0.068929359326422357 0.023491497091578561
609 0.0 0.096120264781916084
610 0.045580434107622476 0.047359104184986359
611 0.022591952960775315 0.0
612 0.022591952960775315 0.023491497091578561
613 0.0 0.023491497091578561
614 0.045580434107622476 0.023491497091578561
615 0.068929359326422357 0.023491497091578561
616 0.0 0.023491497091578561
617 0.045580434107622476 0.096120264781916084
618 0.0 0.047359104184986359
619 0.022591952960775315 0.023491497091578561
620 0.0 0.0
621 0.022591952960775315 0.023491497091578561
622 0.022591952960775315 0.023491497091578561
623 0.022591952960775315 0.0
624 0.092609380996500901 0.27580527360982127
625 0.045580434107622476 0.023491497091578561
626 0.045580434107622476 0.0
627 0.068929359326422357 0.047359104184986359
628 0.022591952960775315 0.071576144543616937
629 0.022591952960775315 0.0
630 0.045580434107622476 0.071576144543616937
631 0.022591952960775315 0.023491497091578561
632 0.0 0.047359104184986359
633 0.022591952960775315 0.023491497091578561
634 0.068929359326422357 0.023491497091578561
635 0.068929359326422357 0.0
636 0.022591952960775315 0.047359104184986359
637 0.022591952960775315 0.0
638 0.0 0.023491497091578561
639 0.045580434107622476 0.0
640 0.045580434107622476 0.047359104184986359
641 0.0 0.023491497091578561
642 0.022591952960775315 0.047359104184986359
643 0.022591952960775315 0.023491497091578561
644 0.0 0.023491497091578561
645 0.068929359326422357 0.096120264781916084
646 0.045580434107622476 0.071576144543616937
647 0.0 0.0
648 0.0 0.023491497091578561
649 0.045580434107622476 0.071576144543616937
650 0.0 0.023491497091578561
651 0.092609380996500901 0.047359104184986359
652 0.022591952960775315 0.047359104184986359
653 0.022591952960775315 0.0
654 0.0 0.023491497091578561
655 0.0 0.0
656 0.068929359326422357 0.071576144543616937
657 0.022591952960775315 0.023491497091578561
658 0.022591952960775315 0.023491497091578561
659 0.045580434107622476 0.071576144543616937
660 0.0 0.023491497091578561
661 0.068929359326422357 0.047359104184986359
662 0.068929359326422357 0.096120264781916084
663 0.26605609998462298 0.30247280415810268
664 0.045580434107622476 0.047359104184986359
665 0.045580434107622476 0.047359104184986359
666 0.19021760058709314 0.24937097212882448
667 0.0 0.0
668 0.068929359326422357 0.0
669 0.022591952960775315 0.0
670 0.14087074490584117 0.023491497091578561
671 0.14087074490584117 0.023491497091578561
672 0.022591952960775315 0.023491497091578561
673 0.068929359326422357 0.023491497091578561
674 0.0 0.0
675 0.022591952960775315 0.0
676 0.0 0.023491497091578561
677 0.0 0.023491497091578561
678 0.045580434107622476 0.071576144543616937
679 0.022591952960775315 0.023491497091578561
680 0.0 0.023491497091578561
681 0.0 0.047359104184986359
682 0.045580434107622476 0.023491497091578561
683 0.0 0.0
684 0.11659645768413072 0.047359104184986359
685 0.092609380996500901 0.071576144543616937
686 0.068929359326422357 0.071576144543616937
687 0.14087074490584117 0.12097261180275953
688 0.022591952960775315 0.023491497091578561
689 0.045580434107622476 0.0
690 0.092609380996500901 0.0
691 0.022591952960775315 0.047359104184986359
692 0.022591952960775315 0.0
693 0.0 0.047359104184986359
694 0.0 0.023491497091578561
695 0.0 0.0
696 0.068929359326422357 0.023491497091578561
697 0.0 0.023491497091578561
698 0.0 0.0
699 0.0 0.0
700 0.068929359326422357 0.023491497091578561
701 0.0 0.071576144543616937
702 0.21526465996096189 0.047359104184986359
703 0.045580434107622476 0.047359104184986359
704 0.045580434107622476 0.0
705 0.0 0.0
706 0.068929359326422357 0.0
707 0.045580434107622476 0.0
708 0.0 0.047359104184986359
709 0.022591952960775315 0.047359104184986359
710 0.045580434107622476 0.023491497091578561
711 0.022591952960775315 0.0
712 0.092609380996500901 0.17154029207753677
713 0.068929359326422357 0.071576144543616937
714 0.022591952960775315 0.071576144543616937
715 0.0 0.071576144543616937
716 0.045580434107622476 0.023491497091578561
717 0.022591952960775315 0.023491497091578561
718 0.045580434107622476 0.047359104184986359
719 0.11659645768413072 0.023491497091578561
720 0.022591952960775315 0.0
721 0.045580434107622476 0.0
722 0.022591952960775315 0.047359104184986359
723 0.0 0.023491497091578561
724 0.11659645768413072 0.023491497091578561
725 0.022591952960775315 0.071576144543616937
726 0.045580434107622476 0.047359104184986359
727 0.0 0.0
728 0.092609380996500901 0.023491497091578561
729 0.0 0.071576144543616937
730 0.0 0.0
731 0.045580434107622476 0.0
732 0.045580434107622476 0.023491497091578561
733 0.022591952960775315 0.071576144543616937
734 0.16541573672957818 0.096120264781916084
735 0.068929359326422357 0.096120264781916084
736 0.045580434107622476 0.0
737 0.045580434107622476 0.047359104184986359
738 0.022591952960775315 0.047359104184986359
739 0.068929359326422357 0.047359104184986359
740 0.0 0.096120264781916084
741 0.045580434107622476 0.0
742 0.022591952960775315 0.023491497091578561
743 0.022591952960775315 0.023491497091578561
744 0.022591952960775315 0.0
745 0.045580434107622476 0.023491497091578561
746 0.045580434107622476 0.047359104184986359
747 0.022591952960775315 0.096120264781916084
748 0.022591952960775315 0.023491497091578561
749 0.0 0.023491497091578561
750 0.068929359326422357 0.0
751 0.19021760058709314 0.22317669821869321
752 0.068929359326422357 0.023491497091578561
753 0.022591952960775315 0.0
754 0.16541573672957818 0.096120264781916084
755 0.068929359326422357 0.023491497091578561
756 0.022591952960775315 0.023491497091578561
757 0.068929359326422357 0.023491497091578561
758 0.092609380996500901 0.071576144543616937
759 0.0 0.0
760 0.022591952960775315 0.0
761 0.068929359326422357 0.023491497091578561
762 0.0 0.0
763 0.022591952960775315 0.0
764 0.0 0.0
765 0.045580434107622476 0.071576144543616937
766 0.068929359326422357 0.0
767 0.0 0.047359104184986359
768 0.022591952960775315 0.023491497091578561
769 0.29178468120062417 0.19723018885759877
770 0.068929359326422357 0.023491497091578561
771 0.0 0.047359104184986359
772 0.045580434107622476 0.023491497091578561
773 0.045580434107622476 0.0
774 0.022591952960775315 0.0
775 0.19021760058709314 0.14611717980161154
776 0.022591952960775315 0.023491497091578561
777 0.0 0.071576144543616937
778 0.022591952960775315 0.047359104184986359
779 0.022591952960775315 0.0
780 0.045580434107622476 0.12097261180275953
781 0.022591952960775315 0.023491497091578561
782 0.092609380996500901 0.071576144543616937
783 0.19021760058709314 0.24937097212882448
784 0.045580434107622476 0.023491497091578561
785 0.045580434107622476 0.12097261180275953
786 0.022591952960775315 0.023491497091578561
787 0.0 0.0
788 0.045580434107622476 0.071576144543616937
789 0.0 0.047359104184986359
790 0.0 0.071576144543616937
791 0.022591952960775315 0.023491497091578561
792 0.19021760058709314 0.14611717980161154
793 0.022591952960775315 0.047359104184986359
794 0.045580434107622476 0.12097261180275953
795 0.068929359326422357 0.0
796 0.0 0.047359104184986359
797 0.092609380996500901 0.17154029207753677
798 0.092609380996500901 0.047359104184986359
799 0.022591952960775315 0.047359104184986359
800 0.068929359326422357 0.071576144543616937
801 0.022591952960775315 0.0
802 0.022591952960775315 0.047359104184986359
803 0.022591952960775315 0.023491497091578561
804 0.045580434107622476 0.023491497091578561
805 0.022591952960775315 0.0
806 0.0 0.023491497091578561
807 0.022591952960775315 0.047359104184986359
808 0.092609380996500901 0.023491497091578561
809 0.045580434107622476 0.0
810 0.022591952960775315 0.023491497091578561
811 0.045580434107622476 0.0
812 0.045580434107622476 0.0
813 0.022591952960775315 0.047359104184986359
814 0.022591952960775315 0.023491497091578561
815 0.045580434107622476 0.047359104184986359
816 0.068929359326422357 0.023491497091578561
817 0.068929359326422357 0.071576144543616937
818 0.022591952960775315 0.096120264781916084
819 0.045580434107622476 0.023491497091578561
820 0.0 0.047359104184986359
821 0.31772640730670032 0.27580527360982127
822 0.092609380996500901 0.0
823 0.068929359326422357 0.17154029207753677
824 0.068929359326422357 0.071576144543616937
825 0.0 0.047359104184986359
826 0.045580434107622476 0.0
827 0.16541573672957818 0.047359104184986359
828 0.068929359326422357 0.047359104184986359
829 0.0 0.0
830 0.0 0.096120264781916084
831 0.045580434107622476 0.047359104184986359
832 0.022591952960775315 0.047359104184986359
833 0.045580434107622476 0.0
834 0.022591952960775315 0.0
835 0.022591952960775315 0.0
836 0.022591952960775315 0.071576144543616937
837 0.022591952960775315 0.0
838 0.045580434107622476 0.047359104184986359
839 0.092609380996500901 0.047359104184986359
840 0.0 0.0
841 0.11659645768413072 0.096120264781916084
842 0.0 0.071576144543616937
843 0.022591952960775315 0.0
844 0.045580434107622476 0.047359104184986359
845 0.022591952960775315 0.0
846 0.022591952960775315 0.023491497091578561
847 0.022591952960775315 0.047359104184986359
848 0.0 0.023491497091578561
849 0.045580434107622476 0.12097261180275953
850 0.045580434107622476 0.023491497091578561
851 0.0 0.023491497091578561
852 0.14087074490584117 0.17154029207753677
853 0.022591952960775315 0.071576144543616937
854 0.0 0.0
855 0.022591952960775315 0.071576144543616937
856 0.022591952960775315 0.0
857 0.022591952960775315 0.047359104184986359
858 0.022591952960775315 0.023491497091578561
859 0.045580434107622476 0.047359104184986359
860 0.0 0.023491497091578561
861 0.0 0.023491497091578561
862 0.022591952960775315 0.0
863 1.0878972826169229 0.90967630097116425
864 0.022591952960775315 0.023491497091578561
865 0.022591952960775315 0.0
866 0.0 0.071576144543616937
867 3.0404240081917995 3.602975108784273
868 0.022591952960775315 0.023491497091578561
869 0.0 0.023491497091578561
870 0.022591952960775315 0.0
871 0.0 0.0
872 0.0 0.0
873 0.0 0.0
874 0.068929359326422357 0.12097261180275953
875 0.0 0.023491497091578561
876 0.045580434107622476 0.047359104184986359
877 0.0 0.0
878 0.022591952960775315 0.023491497091578561
879 0.022591952960775315 0.0
880 0.022591952960775315 0.071576144543616937
881 0.022591952960775315 0.0
882 0.022591952960775315 0.071576144543616937
883 0.022591952960775315 0.0
884 0.022591952960775315 0.0
885 0.092609380996500901 0.023491497091578561
886 0.0 0.12097261180275953
887 0.045580434107622476 0.023491497091578561
888 0.0 0.023491497091578561
889 0.022591952960775315 0.047359104184986359
890 0.0 0.0
891 0.045580434107622476 0.0
892 0.045580434107622476 0.023491497091578561
893 0.045580434107622476 0.023491497091578561
894 0.022591952960775315 0.023491497091578561
895 0.21526465996096189 0.43912085425548042
896 0.022591952960775315 0.047359104184986359
897 0.068929359326422357 0.023491497091578561
898 0.022591952960775315 0.047359104184986359
899 0.022591952960775315 0.0
900 0.0 0.023491497091578561
901 0.068929359326422357 0.023491497091578561
902 0.022591952960775315 0.047359104184986359
903 0.045580434107622476 0.023491497091578561
904 0.0 0.023491497091578561
905 0.022591952960775315 0.071576144543616937
906 0.068929359326422357 0.047359104184986359
907 0.022591952960775315 0.047359104184986359
908 0.092609380996500901 0.023491497091578561
909 0.0 0.0
910 0.045580434107622476 0.023491497091578561
911 0.022591952960775315 0.023491497091578561
912 0.045580434107622476 0.023491497091578561
913 0.0 0.0
914 0.0 0.023491497091578561
915 0.11659645768413072 0.047359104184986359
916 0.022591952960775315 0.047359104184986359
917 0.022591952960775315 0.023491497091578561
918 0.022591952960775315 0.0
919 0.022591952960775315 0.0
920 0.0 0.023491497091578561
921 0.14087074490584117 0.071576144543616937
922 0.0 0.023491497091578561
923 0.022591952960775315 0.023491497091578561
924 0.022591952960775315 0.023491497091578561
925 0.045580434107622476 0.0
926 0.022591952960775315 0.023491497091578561
927 0.0 0.0
928 0.045580434107622476 0.0
929 0.0 0.047359104184986359
930 0.0 0.047359104184986359
931 0.0 0.0
932 0.022591952960775315 0.0
933 0.022591952960775315 0.0
934 0.045580434107622476 0.047359104184986359
935 0.0 0.047359104184986359
936 0.045580434107622476 0.0
937 0.022591952960775315 0.0
938 0.045580434107622476 0.023491497091578561
939 0.022591952960775315 0.023491497091578561
940 0.092609380996500901 0.023491497091578561
941 0.045580434107622476 0.023491497091578561
942 0.045580434107622476 0.0
943 0.0 0.047359104184986359
944 0.022591952960775315 0.0
945 0.0 0.023491497091578561
946 0.068929359326422357 0.096120264781916084
947 0.045580434107622476 0.023491497091578561
948 0.0 0.0
949 0.0 0.047359104184986359
950 0.0 0.0
951 0.068929359326422357 0.071576144543616937
952 0.022591952960775315 0.047359104184986359
953 0.11659645768413072 0.096120264781916084
954 0.022591952960775315 0.0
955 0.0 0.023491497091578561
956 0.022591952960775315 0.023491497091578561
957 0.0 0.047359104184986359
958 0.0 0.047359104184986359
959 0.068929359326422357 0.12097261180275953
960 0.022591952960775315 0.047359104184986359
961 0.022591952960775315 0.023491497091578561
962 0.022591952960775315 0.023491497091578561
963 0.068929359326422357 0.047359104184986359
964 0.0 0.047359104184986359
965 0.045580434107622476 0.071576144543616937
966 0.0 0.071576144543616937
967 0.045580434107622476 0.0
968 0.022591952960775315 0.0
969 0.092609380996500901 0.047359104184986359
970 0.045580434107622476 0.071576144543616937
971 0.0 0.023491497091578561
972 0.0 0.0
973 0.0 0.0
974 0.022591952960775315 0.0
975 0.045580434107622476 0.023491497091578561
976 0.092609380996500901 0.096120264781916084
977 0.022591952960775315 0.047359104184986359
978 0.0 0.023491497091578561
979 0.068929359326422357 0.023491497091578561
980 0.092609380996500901 0.047359104184986359
981 0.022591952960775315 0.023491497091578561
982 0.022591952960775315 0.0
983 0.0 0.0
984 0.068929359326422357 0.071576144543616937
985 0.045580434107622476 0.071576144543616937
986 0.0 0.023491497091578561
987 0.068929359326422357 0.023491497091578561
988 0.022591952960775315 0.0
989 0.045580434107622476 0.047359104184986359
990 0.0 0.071576144543616937
991 0.0 0.0
992 0.022591952960775315 0.12097261180275953
993 0.092609380996500901 0.0
994 0.022591952960775315 0.0
995 0.022591952960775315 0.023491497091578561
996 0.045580434107622476 0.023491497091578561
997 0.045580434107622476 0.047359104184986359
998 0.022591952960775315 0.023491497091578561
999 0.092609380996500901 0.0
